5.00010013580322 0
5.02060627378523 0.203024409239566
5.04111241176724 0.104015716111641
5.06161854974926 0.0675572539495575
5.08212468773127 0.312399022753316
5.10263082571328 -0.119792310810416
5.12313696369529 -0.0936000800749737
5.1436431016773 0.135810179550202
5.16414923965931 0.125687336807885
5.18465537764132 -0.0823019416352556
5.20516151562333 0.157675677554112
5.22566765360534 0.0122868610426554
5.24617379158735 0.012781608830374
5.26667992956936 0.252909920917268
5.28718606755137 0.201421797303337
5.30769220553339 0.129150571321915
5.3281983435154 0.161096242973001
5.34870448149741 0.00559214558992993
5.36921061947942 -0.0561117208272993
5.38971675746143 0.121817977054646
5.41022289544344 0.174797905902434
5.43072903342545 0.0715780657160643
5.45123517140746 0.14549178982887
5.47174130938947 0.156955744907517
5.49224744737148 0.0851365976186728
5.51275358535349 -0.0803823187043292
5.5332597233355 -0.0687676707281559
5.55376586131752 0.0470638748805262
5.57427199929953 0.0275289847883835
5.59477813728154 0.226794325662083
5.61528427526355 0.0511098975016241
5.63579041324556 0.0525590336403409
5.65629655122757 0.0644750674115662
5.67680268920958 0.0139413321486337
5.69730882719159 0.00512449451820962
5.7178149651736 0.131774554520294
5.73832110315561 0.0188915121548878
5.75882724113762 0.13522536742199
5.77933337911963 0.116192786988267
5.79983951710165 0.0659604375203867
5.82034565508366 -0.0988050143149852
5.84085179306567 -0.0587782032737317
5.86135793104768 0.043798838733364
5.88186406902969 0.0526761117063017
5.9023702070117 0.103270282311748
5.92287634499371 0.0601646838830362
5.94338248297572 0.0275259830868331
5.96388862095773 -0.0363124867435282
5.98439475893974 -0.0167673922747138
6.00490089692175 0.211161266493276
6.02540703490376 0.0953901562271076
6.04591317288578 0.0317526102601146
6.06641931086779 0.124415295258964
6.0869254488498 0.352544877890321
6.10743158683181 0.205724691487521
6.12793772481382 0.121454736050563
6.14844386279583 0.00598501157944642
6.16895000077784 0.150982184740839
6.18945613875985 0.0251962555347396
6.20996227674186 0.0557105572944829
6.23046841472387 -0.0283082433132655
6.25097455270588 -0.070610146288505
6.27148069068789 -0.0191118182979025
6.29198682866991 0.0845200739918752
6.31249296665192 0.125702197247495
6.33299910463393 0.0419345514689567
6.35350524261594 0.104050469989594
6.37401138059795 0.0516332861427397
6.39451751857996 0.0721829999283944
6.41502365656197 0.0615329446798908
6.43552979454398 -0.105316879602771
6.45603593252599 0.10288352708041
6.476542070508 0.0923841647294323
6.49704820849001 0.10276836667763
6.51755434647202 0.227786132925003
6.53806048445404 0.0403541301382185
6.55856662243605 0.0717223583172758
6.57907276041806 -0.0218591825378249
6.59957889840007 0.0616928409062496
6.62008503638208 -0.0317882380171671
6.64059117436409 0.103947580691925
6.6610973123461 0.0105669637001921
6.68160345032811 0.125569911007635
6.70210958831012 -0.0510435773857475
6.72261572629213 -0.00885683481328747
6.74312186427414 -0.0603698612749853
6.76362800225616 0.159000676562492
6.78413414023817 -0.0799118879675221
6.80464027822018 -0.0896075548650274
6.82514641620219 0.0873992214191289
6.8456525541842 0.0977895620024607
6.86615869216621 -0.110519866448366
6.88666483014822 0.0978876027333169
6.90717096813023 0.00426196954750802
6.92767710611224 0.139853233994208
6.94818324409425 -0.182838603926584
6.96868938207626 0.0570197891184665
6.98919552005827 0.0677617464626924
7.00970165804029 0.130637268106094
7.0302077960223 0.0998130207153367
7.05071393400431 -0.0559609957095781
7.07122007198632 -0.0866847811686509
7.09172620996833 -0.169441668995215
7.11223234795034 0.143685007477396
7.13273848593235 -0.157721418417484
7.15324462391436 0.0721723866534777
7.17375076189637 0.0208664226902816
7.19425689987838 0.011277356359594
7.21476303786039 0.220488520994749
7.2352691758424 -0.122333416737588
7.25577531382442 0.0661448764959172
7.27628145180643 -0.0786599326380688
7.29678758978844 0.10991882252712
7.31729372777045 0.0589644753248183
7.33779986575246 -0.210689640911642
7.35830600373447 -0.0427935261822597
7.37881214171648 -0.124847180487036
7.39931827969849 0.0506139672072718
7.4198244176805 -0.0447079874659118
7.44033055566251 0.0162702888267464
7.46083669364452 0.0147987960852467
7.48134283162653 0.159210867642922
7.50184896960855 0.14742317016644
7.52235510759056 0.146102370322466
7.54286124557257 -0.0530848652223321
7.56336738355458 0.049861463532045
7.58387352153659 -0.00339197674773606
7.6043796595186 0.162154813938325
7.62488579750061 0.00483516892356151
7.64539193548262 -0.0482675784586936
7.66589807346463 0.0653465717915602
7.68640421144664 0.0435942863409893
7.70691034942865 -0.0614411014770729
7.72741648741066 0.10440707500404
7.74792262539268 -0.0526111842156715
7.76842876337469 0.0195874541971257
7.7889349013567 0.227252990242432
7.80944103933871 0.0599687572535793
7.82994717732072 0.267734755230569
7.85045331530273 -0.086949015826599
7.87095945328474 -0.0144992225845921
7.89146559126675 0.172584134956591
7.91197172924876 -0.0881989432030516
7.93247786723077 0.0885682096031484
7.95298400521278 0.0883022600418568
7.97349014319479 -0.0369134585535926
7.99399628117681 0.192087720483467
8.01450241915882 0.0982224638197011
8.03500855714083 0.0148241047884443
8.05551469512284 0.0773093100563629
8.07602083310485 -0.0372385870432099
8.09652697108686 -0.0267362531769407
8.11703310906887 -0.0161836883448293
8.13753924705088 0.161085774119791
8.15804538503289 -0.0365945324497474
8.1785515230149 -0.161307941386777
8.19905766099691 0.0437046584065275
8.21956379897892 0.0508508224990072
8.24006993696094 0.0684638842239955
8.26057607494295 0.138210510248159
8.28108221292496 0.249674033904832
8.30158835090697 0.0278544551940125
8.32209448888898 -0.0272482258842978
8.34260062687099 0.042699324003234
8.363106764853 0.279363771523274
8.38361290283501 0.0473284500091566
8.40411904081702 0.0757600261275477
8.42462517879903 -0.0207581667882193
8.44513131678104 0.320273871261856
8.46563745476305 0.0884394736111064
8.48614359274507 0.0233219735928655
8.50664973072708 -0.0104952954595334
8.52715586870909 -0.0234290002127568
8.5476620066911 -0.119645807333472
8.56816814467311 0.0328888336580955
8.58867428265512 0.081307038948838
8.60918042063713 -0.0473078581279109
8.62968655861914 0.0324608090945157
8.65019269660115 -0.0439702927172158
8.67069883458316 0.0983988364368947
8.69120497256517 -0.0404318034431527
8.71171111054718 0.0395377876426419
8.7322172485292 -0.00544239030572147
8.75272338651121 0.0329609960450904
8.77322952449322 0.081831280028411
8.79373566247523 0.026585128310907
8.81424180045724 -0.00777745910742178
8.83474793843925 -0.0212564822265752
8.85525407642126 0.298648058953447
8.87576021440327 0.0873528310993108
8.89626635238528 0.063607834211017
8.91677249036729 -0.0121702650447686
8.9372786283493 0.0266851999986215
8.95778476633132 0.148924229341187
8.97829090431333 -0.0100365103504059
8.99879704229534 0.351886314257177
9.01930318027735 0.0680260364972684
9.03980931825936 0.148799323036535
9.06031545624137 -0.030793826125023
9.08082159422338 0.133413255679261
9.10132773220539 -0.150246098217279
9.1218338701874 0.066144778852022
9.14234000816941 0.157585886887166
9.16284614615142 0.228243892554817
9.18335228413343 0.142702129188312
9.20385842211545 0.150960596787648
9.22436456009746 0.0446859620194926
9.24487069807947 -0.124038441782821
9.26537683606148 0.176037385380708
9.28588297404349 -0.00300322315658774
9.3063891120255 0.140923065938625
9.32689525000751 -0.173433747333653
9.34740138798952 0.251843003693244
9.36790752597153 0.041753319019316
9.38841366395354 0.0192138653112299
9.40891980193555 0.20505797590232
9.42942593991756 0.0263689841259178
9.44993207789958 -0.0168531100179752
9.47043821588159 0.0337250268039737
9.4909443538636 0.073936727925098
9.51145049184561 -0.0108013399879359
9.53195662982762 0.0711774897315391
9.55246276780963 0.0386232170835228
9.57296890579164 -0.0042974912653182
9.59347504377365 -0.0575846353149839
9.61398118175566 -0.0274882150654743
9.63448731973767 0.0339084361498774
9.65499345771968 -0.0400613483355954
9.67549959570169 -0.0202309018552265
9.69600573368371 -0.250350224409016
9.71651187166572 0.175830684003037
9.73701800964773 -0.0125215099524008
9.75752414762974 0.0491765270580031
9.77803028561175 0.152591461700915
9.79853642359376 -0.18144337269033
9.81904256157577 0.0887386905509329
9.83954869955778 -0.016029015241962
9.86005483753979 -0.0999131567356816
9.8805609755218 -0.0921124658076442
9.90106711350381 0.0928217894195686
9.92157325148582 0.0173896089459569
9.94207938946784 -0.172575673895146
9.96258552744985 0.293759274229593
9.98309166543186 -0.125272213346493
10.0035978034139 -0.0442534699567367
10.0241039413959 0.0680655043988614
10.0446100793779 0.170018043053635
10.0651162173599 0.0845208126742507
10.0856223553419 0.0199071465940417
10.1061284933239 0.0178437114796746
10.1266346313059 -0.0258361593355172
10.1471407692879 0.0555342008151329
10.16764690727 0.0119547919316254
10.188153045252 0.0100922806806265
10.208659183234 0.0603633337288028
10.229165321216 -0.0247320489238456
10.249671459198 -0.0264438672773186
10.27017759718 0.00314454533505049
10.290683735162 0.011949855579928
10.311189873144 0.177055396790648
10.331696011126 -0.136955497699457
10.3522021491081 -0.0550828278903868
10.3727082870901 0.047673406217859
10.3932144250721 0.10881320462528
10.4137205630541 0.0137532339985431
10.4342267010361 0.0437434943376482
10.4547328390181 0.115450652309262
10.4752389770001 0.166374707913385
10.4957451149821 -0.147234338849984
10.5162512529641 -0.0128764879808445
10.5367573909461 0.309031593854137
10.5572635289282 0.203906573321628
10.5777696669102 0.0675817837549604
10.5982758048922 0.0771405584874683
10.6187819428742 0.222166230852485
10.6392880808562 0.22140880085001
10.6597942188382 -0.0397150648532898
10.6803003568202 -0.00912203292408043
10.7008064948022 -0.0722287700290292
10.7213126327842 -0.124868609501469
10.7418187707663 0.079258253470079
10.7623249087483 0.168852014074136
10.7828310467303 0.258496005644035
10.8033371847123 0.202356894846443
10.8238433226943 0.0525180150146927
10.8443494606763 0.0902293661487843
10.8648555986583 0.200907614915385
10.8853617366403 0.113719427981161
10.9058678746223 0.00574813867944513
10.9263740126044 0.220743747010238
10.9468801505864 0.13370625297354
10.9673862885684 0.0883856565693506
10.9878924265504 0.0743652911310029
11.0083985645324 0.008311823325164
11.0289047025144 0.0673085864851672
11.0494108404964 -0.0507277527223209
11.0699169784784 0.0187861390360329
11.0904231164604 0.0258502617602288
11.1109292544425 -0.1337020512164
11.1314353924245 0.175545866772813
11.1519415304065 0.109844015727868
11.1724476683885 0.190025728982099
11.1929538063705 0.114007673202172
11.2134599443525 0.183873181721419
11.2339660823345 0.368372254539843
11.2544722203165 0.167504891657442
11.2749783582985 0.0604377597408821
11.2954844962806 -0.025745807876502
11.3159906342626 0.138120855471956
11.3364967722446 0.0103710831195891
11.3570029102266 0.0180882083997314
11.3775090482086 -0.0470611020209515
11.3980151861906 0.169089818524208
11.4185213241726 0.176957636701876
11.4390274621546 0.164042352512053
11.4595336001366 0.182427299288071
11.4800397381186 0.0862791436965986
11.5005458761007 0.115181219070968
11.5210520140827 0.092050192077846
11.5415581520647 0.110636062717233
11.5620642900467 0.181355497655795
11.5825704280287 0.0854584968935324
11.6030765660107 0.239611727097112
11.6235827039927 -0.0124348117334667
11.6440888419747 0.25640221373513
11.6645949799567 0.0669561368362355
11.6851011179388 0.0129769575698497
11.7056072559208 0.0840480092693059
11.7261133939028 0.00933595860127068
11.7466195318848 0.205507472232411
11.7671256698668 -0.129520783170607
11.7876318078488 0.254251192392217
11.8081379458308 0.0234900655875501
11.8286440838128 0.146945836415391
11.8491502217948 0.405868504875742
11.8696563597769 0.196091404301934
11.8901624977589 -0.0136354653060318
11.9106686357409 0.0579378960518444
11.9311747737229 0.160811488375563
11.9516809117049 0.00331864499845635
11.9721870496869 0.137542699253858
11.9926931876689 -0.228183015524897
12.0131993256509 0.260308167328856
12.0337054636329 -0.00115041885154921
12.054211601615 0.0707745592672211
12.074717739597 0.205249768351834
12.095223877579 0.193941875068954
12.115730015561 0.036850879418584
12.136236153543 0.192310114734056
12.156742291525 -0.120930418984631
12.177248429507 0.107545944929192
12.197754567489 0.294405873142189
12.218260705471 0.085482698987696
12.238766843453 0.126609755799044
12.2592729814351 0.0532037102429015
12.2797791194171 0.0735978956526004
12.3002852573991 -0.114291021305192
12.3207913953811 0.166620292702858
12.3412975333631 -0.0107514956565835
12.3618036713451 0.0410936136164834
12.3823098093271 -0.0215943794779407
12.4028159473091 0.238684525060144
12.4233220852911 0.0823469938974037
12.4438282232732 0.280226360367172
12.4643343612552 0.113572624469449
12.4848404992372 0.0407191195375685
12.5053466372192 0.0929158455715295
12.5258527752012 -0.115253864095334
12.5463589131832 0.072459990536978
12.5668650511652 0.0206407428017987
12.5873711891472 -0.135294940634205
12.6078773271292 -0.0150730230851814
12.6283834651113 0.126032458763018
12.6488896030933 0.194271504910393
12.6693957410753 0.0333941153569426
12.6899018790573 0.0809002901026679
12.7104080170393 0.357623362480902
12.7309141550213 0.155229999158311
12.7514202930033 0.234136866801563
12.7719264309853 -0.0306560345893441
12.7924325689673 0.152517961652259
12.8129387069494 0.346158855526369
12.8334448449314 0.362766647032988
12.8539509829134 0.119008002838783
12.8744571208954 0.479466256277086
12.8949632588774 0.402474740681232
12.9154693968594 0.127616789384553
12.9359755348414 0.206975735720382
12.9564816728234 0.150968246355387
12.9769878108054 0.272094321289567
12.9974939487875 0.33077062718959
13.0180000867695 0.326997164055454
13.0385062247515 0.44827393188716
13.0590123627335 0.527934264018041
13.0795185007155 0.295144827114765
13.1000246386975 0.239488954510664
13.1205307766795 0.110966646205738
13.1410369146615 0.0449945688666544
13.1615430526435 0.114489389160079
13.1820491906255 0.413201107086013
13.2025553286076 -0.121370277355545
13.2230614665896 0.177441902502073
13.2435676045716 -0.0236956866744675
13.2640737425536 0.223133621781501
13.2845798805356 -0.0508201721300221
13.3050860185176 0.0919429315909632
13.3255921564996 -0.129827067055542
13.3460982944816 -0.0390468347362056
13.3666044324636 -0.104466371451028
13.3871105704457 -0.0031690105333404
13.4076167084277 0.244011914683522
13.4281228464097 -0.0191735958004404
13.4486289843917 -0.0114755419852275
13.4691351223737 -0.118310590537505
13.4896412603557 -0.0603818231750071
13.5101473983377 0.237180508486667
13.5306535363197 0.0139597377808496
13.5511596743017 0.0512058647075413
13.5716658122838 0.0155855559334077
13.5921719502658 0.12584881145845
13.6126780882478 0.267412297949334
13.6331842262298 0.37777601540606
13.6536903642118 0.0819399638286278
13.6741965021938 0.202820809883705
13.6947026401758 0.24041855357129
13.7152087781578 0.153066528224718
13.7357149161398 0.190764733843987
13.7562210541219 0.280596503762432
13.7767271921039 0.380895171313385
13.7972333300859 0.241660736496847
13.8177394680679 0.331643199312818
13.8382456060499 0.244592559761298
13.8587517440319 0.324258817842285
13.8792578820139 0.414391973555782
13.8997640199959 0.306658693568455
13.9202701579779 0.313558977880302
13.9407762959599 0.435092826491325
13.961282433942 0.567093572734857
13.981788571924 0.501227883277564
14.002294709906 0.341662424786112
14.022800847888 0.34881386392717
14.04330698587 0.428932200700736
14.063813123852 0.644517435106811
14.084319261834 0.599736233812062
14.104825399816 0.513338596816487
14.125331537798 0.791574524120088
14.1458376757801 0.726110682389531
14.1663438137621 0.608613738291482
14.1868499517441 0.44950035849261
14.2073560897261 0.811270542992912
14.2278622277081 0.56892429179239
14.2483683656901 0.701628271557709
14.2688745036721 0.626049148955538
14.2893806416541 0.821353590652542
14.3098867796361 0.579208263315387
14.3303929176182 1.00377983361074
14.3508990556002 1.14715163487194
14.3714051935822 0.81140700043231
14.3919113315642 1.27779593029186
14.4124174695462 1.14006842445058
14.4329236075282 1.88780781624181
14.4534297455102 1.33351410566555
14.4739358834922 1.86260395938846
14.4944420214742 2.01674404407722
14.5149481594563 2.52510102639849
14.5354542974383 2.16892490635226
14.5559604354203 2.70863235060521
14.5764665734023 2.342140025824
14.5969727113843 3.38194793200864
14.6174788493663 3.34888940249245
14.6379849873483 3.3471311039421
14.6584911253303 4.19958970302426
14.6789972633123 3.63543186640559
14.6995034012944 4.10257426075277
14.7200095392764 4.50726688606579
14.7405156772584 4.22450974234465
14.7610218152404 4.18138616292269
14.7815279532224 4.20081281446657
14.8020340912044 4.43903969697629
14.8225402291864 4.65648347711852
14.8430463671684 4.76981082155992
14.8635525051504 4.2790217303005
14.8840586431324 4.66328287000692
14.9045647811145 5.42259424067919
14.9250709190965 5.92153917565063
14.9455770570785 5.97261767492124
14.9660831950605 6.20082973849103
14.9865893330425 7.29367536636
15.0070954710245 8.1678212251948
15.0276016090065 9.32326731499545
15.0481077469885 9.74959696909528
15.0686138849705 12.3218101874943
15.0891200229526 14.0086569701925
15.1096261609346 15.3101373171898
15.1301322989166 17.2158345618197
15.1506384368986 20.6424153707487
15.1711445748806 21.9648797439769
15.1916507128626 22.474894348171
15.2121568508446 22.2766258499975
15.2326629888266 20.7138242494566
15.2531691268086 19.4531562132148
15.2736752647907 16.5050384079389
15.2941814027727 14.7965541669622
15.3146875407547 11.973536823618
15.3351936787367 10.1714030445729
15.3556998167187 8.70265282982702
15.3762059547007 6.96311951271365
15.3967120926827 5.80696975989946
15.4172182306647 4.89045357138444
15.4377243686467 4.16148761383526
15.4582305066288 3.87007188725193
15.4787366446108 3.28703972496777
15.4992427825928 3.23530779364945
15.5197489205748 2.79820942663031
15.5402550585568 2.20491129057701
15.5607611965388 2.20541338548955
15.5812673345208 1.91429904470127
15.6017734725028 1.91490160154549
15.6222796104848 1.86347105602222
15.6427857484668 1.5308407414648
15.6632918864489 1.41701065787322
15.6837980244309 0.907397471914147
15.7043041624129 1.42908451692092
15.7248103003949 0.97165512622686
15.7453164383769 1.01427596649865
15.7658225763589 0.650697037736275
15.7863287143409 0.797585006606412
15.8068348523229 0.579939873109058
15.8273409903049 0.685261637244212
15.847847128287 0.790633632345208
15.868353266269 0.375222525078714
15.888859404251 0.543194982111394
15.909365542233 0.304967670109916
15.929871680215 0.170957255740948
15.950377818197 0.297413739004487
15.970883956179 0.517670453233869
15.991390094161 0.456727398429093
16.011896232143 0.312501241256825
16.0324023701251 0.5745753150504
16.0529085081071 0.190866286476483
16.0734146460891 0.171790822201742
16.0939207840711 0.111098922226176
16.1144269220531 0.227540586549785
16.1349330600351 0.344032481839236
16.1554391980171 0.0230746080945294
16.1759453359991 -0.0061663680176689
16.1964514739811 0.0792262201693081
16.2169576119632 -0.074914294011206
16.2374637499452 0.312662089440789
16.2579698879272 -0.122627962808042
16.2784760259092 0.275465549242304
16.2989821638912 0.0173592922584915
16.3194883018732 0.155136599573854
16.3399944398552 0.251297471188392
16.3605005778372 0.191258573768772
16.3810067158192 0.256269907314994
16.4015128538013 -0.0536685281729419
16.4220189917833 -0.0302233993617027
16.4425251297653 0.159938627082045
16.4630312677473 0.048067551158302
16.4835374057293 0.0299967062004007
16.5040435437113 0.261976092208341
16.5245496816933 0.150255709182124
16.5450558196753 0.319835557121749
16.5655619576573 -0.114701030639451
16.5860680956393 -0.0491873874348088
16.6065742336214 0.130959820069008
16.6270803716034 0.0194905918720012
16.6475865095854 -0.039845072025831
16.6680926475674 0.150869495042179
16.6885987855494 0.0812176264093649
16.7091049235314 0.251199322075726
16.7296110615134 0.0878979153745951
16.7501171994954 0.00798007297264003
16.7706233374774 -0.0406375384634732
16.7911294754595 0.0670450810662557
16.8116356134415 -0.0856387351048402
16.8321417514235 -0.0820223203100938
16.8526478894055 -0.0262723412161723
16.8731540273875 0.144111202176925
16.8936601653695 -0.14378835679747
16.9141663033515 0.0996123151939778
16.9346724413335 -0.0736034485153994
16.9551785793155 -0.121768981258934
16.9756847172976 0.142615716963373
16.9961908552796 0.0320506461515215
17.0166969932616 -0.120130860361154
17.0372031312436 -0.0900905736143556
17.0577092692256 0.148333277431618
17.0782154072076 0.126390692776768
17.0987215451896 -0.0830016609122413
17.1192276831716 -0.0840104503020744
17.1397338211536 -0.0328856753927322
17.1602399591357 0.0391226638157853
17.1807460971177 0.0799312339901441
17.2012522350997 0.214540035130346
17.2217583730817 0.140865733903056
17.2422645110637 -0.203591669691725
17.2627706490457 0.118667824346002
17.2832767870277 -0.0590224506504287
17.3037829250097 0.0758375053189828
17.3242890629917 0.0128310255875697
17.3447952009737 -0.227208556511335
17.3653013389558 0.0328020923556025
17.3858074769378 0.00119630552171524
17.4063136149198 -0.0720259170129964
17.4268197529018 -0.0826979085818664
17.4473258908838 0.115013664148439
17.4678320288658 0.0731921345112534
17.4883381668478 0.229337502506576
17.5088443048298 -0.0103002318655925
17.5293504428118 -0.124887735271919
17.5498565807939 0.0174002356288891
17.5703627187759 0.180571770828872
17.5908688567579 0.197960203661364
17.6113749947399 0.0383155341263648
17.6318811327219 -0.00669557110945984
17.6523872707039 0.240010221287225
17.6728934086859 -0.179900422016915
17.6933995466679 0.0356558323114531
17.7139056846499 0.00126231760566364
17.734411822632 -0.10599763280095
17.754917960614 -0.0465406855750559
17.775424098596 0.315049825950014
17.795930236578 -0.198309431559074
17.81643637456 0.0175482085643464
17.836942512542 -0.0269605870130576
17.857448650524 -0.0818358182912866
17.877954788506 0.0195891813963269
17.898460926488 0.152314412049782
17.9189670644701 0.0871732070024129
17.9394732024521 -0.227917767079115
17.9599793404341 -0.00129184352813327
17.9804854784161 0.0274676443220234
18.0009916163981 0.087527363138022
18.0214977543801 -0.0711126870801375
18.0420038923621 0.0202974936675455
18.0625100303441 0.0909245720477367
18.0830161683261 -0.140481451939563
18.1035223063082 0.201079421705646
18.1240284442902 0.12602385965003
18.1445345822722 -0.0218981381064109
18.1650407202542 0.0906467617696571
18.1855468582362 0.109491892611567
18.2060529962182 0.253387254419319
18.2265591342002 0.0744161805262467
18.2470652721822 0.0413286709323495
18.2675714101642 -0.0542086076957056
18.2880775481462 -0.118445655357919
18.3085836861283 0.0569508612790433
18.3290898241103 -0.163435724451486
18.3495959620923 0.0745612541171603
18.3701021000743 -0.145724869681685
18.3906082380563 -0.0660824347711959
18.4111143760383 0.0448602311051349
18.4316205140203 -0.0108135387193586
18.4521266520023 -0.108103744244677
18.4726327899843 0.0446562811958466
18.4931389279664 0.0724665376022127
18.5136450659484 -0.0350896416922466
18.5341512039304 0.0761544099791365
18.5546573419124 -0.125051307383639
18.5751634798944 0.163376539552762
18.5956696178764 0.160187950788337
18.6161757558584 -0.0200337403435782
18.6366818938404 -0.085621867176318
18.6571880318224 0.0259235702901168
18.6776941698045 -0.00831409461093924
18.6982003077865 -0.0737515285461536
18.7187064457685 0.0171112684844743
18.7392125837505 0.0246909631476107
18.7597187217325 -0.0510124445567439
18.7802248597145 0.13375104537141
18.8007309976965 -0.212685233734595
18.8212371356785 0.0346787181252433
18.8417432736605 -0.0512404323824103
18.8622494116426 0.00872398140911157
18.8827555496246 0.016655292833142
18.9032616876066 0.201720168556348
18.9237678255886 0.00141860857872911
18.9442739635706 0.134500612900285
18.9647801015526 0.0280495148543509
18.9852862395346 -0.0575180188924085
19.0057923775166 0.544464678326674
19.0262985154986 -0.0201690601550679
19.0468046534806 -0.116002567670968
19.0673107914627 0.0173808224456407
19.0878169294447 -0.0262688898052419
19.1083230674267 0.096798295576384
19.1288292054087 -0.228000954742815
19.1493353433907 -0.0839999740961712
19.1698414813727 -0.0649487624836862
19.1903476193547 -0.0562639865720254
19.2108537573367 0.0774710203054771
19.2313598953187 0.0341729248154885
19.2518660333008 0.293008393624675
19.2723721712828 0.145644093399704
19.2928783092648 -0.230836642526092
19.3133844472468 0.0593995191806207
19.3338905852288 0.0996859118531754
19.3543967232108 -0.0162274645084275
19.3749028611928 0.0137427234291445
19.3954089991748 -0.279153524334108
19.4159151371568 0.209250458868481
19.4364212751389 -0.000211993629753993
19.4569274131209 -0.084624215162147
19.4774335511029 0.0601804609379684
19.4979396890849 0.163368701337259
19.5184458270669 -0.0250594939642748
19.5389519650489 -0.130104124966633
19.5594581030309 0.0253786684470061
19.5799642410129 0.0142450261598208
19.6004703789949 0.044828281505144
19.620976516977 -0.0182882321836906
19.641482654959 0.0436454850933168
19.661988792941 0.0535461000028332
19.682494930923 -0.0198363874551422
19.703001068905 0.188081356052725
19.723507206887 -0.0310340028068996
19.744013344869 0.229067535965984
19.764519482851 0.0517193057047105
19.785025620833 -0.240162026924055
19.8055317588151 0.134673538079689
19.8260378967971 -0.0216906659507257
19.8465440347791 0.00949536098470194
19.8670501727611 0.332398285552638
19.8875563107431 0.290768107753083
19.9080624487251 0.113771494252703
19.9285685867071 0.0722417783848321
19.9490747246891 -0.14632103985053
19.9695808626711 -0.0210836271200507
19.9900870006531 0.0521206832429375
20.0105931386352 0.323291891238435
20.0310992766172 0.13617999686644
20.0516054145992 0.178285000126954
20.0721115525812 0.0121069010199772
20.0926176905632 0.0230623662121756
20.1131238285452 0.0444847290368826
20.1336299665272 0.0867906561607648
20.1541361045092 0.108313480917156
20.1746422424912 0.0569698699727221
20.1951483804733 0.151509823327464
20.2156545184553 -0.0351499923519523
20.2361606564373 0.0907404229344733
20.2566667944193 -0.116652264146592
20.2771729324013 0.353088613071517
20.2976790703833 0.0624630545888027
20.3181852083653 -0.00936227292807046
20.3386913463473 0.168862630520898
20.3591974843293 0.305471098269043
20.3797036223114 0.0358797969830296
20.4002097602934 0.266338726662858
20.4207158982754 0.0489312206418617
20.4412220362574 0.102407278920041
20.4617281742394 0.249683568164062
20.4822343122214 0.157426755040591
20.5027404502034 0.148553506216297
20.5232465881854 0.0980638216911773
20.5437527261674 0.318457701465233
20.5642588641495 0.018068478871798
20.5847650021315 0.0614794872442044
20.6052711401135 0.0216073932491196
20.6257772780955 0.00261886355321028
20.6462834160775 0.452430564823143
20.6667895540595 0.089792497058917
20.6872956920415 0.352204660260534
20.7078018300235 0.281333721094659
20.7283079680055 0.10634634622796
20.7488141059875 0.348075868993769
20.7693202439696 0.46485562272542
20.7898263819516 0.696268940756247
20.8103325199336 0.438149156419583
20.8308386579156 0.315496269715426
20.8513447958976 0.422060280643779
20.8718509338796 0.372424522537974
20.8923570718616 0.51033899539801
20.9128632098436 0.658720365890555
20.9333693478256 0.598818634015609
20.9538754858077 0.809800466439839
20.9743816237897 0.666665863163243
20.9948877617717 0.367331490852491
21.0153938997537 0.974297349507579
21.0359000377357 0.810480105795177
21.0564061757177 0.980046426381949
21.0769123136997 0.847579644601231
21.0974184516817 0.902663093786354
21.1179245896637 1.28071344060399
21.1384307276458 1.11714735172079
21.1589368656278 1.24529816047011
21.1794430036098 1.62349920018527
21.1999491415918 1.28300047086627
21.2204552795738 1.46338530584644
21.2409614175558 1.26882037179246
21.2614675555378 1.56388900203765
21.2819736935198 1.41109119658202
21.3024798315018 1.43542695542557
21.3229859694839 1.68897961190162
21.3434921074659 1.78633249934351
21.3639982454479 1.90456895108458
21.3845043834299 1.57493896712483
21.4050105214119 2.00577588079758
21.4255166593939 1.93666302543618
21.4460227973759 1.83635040104061
21.4665289353579 1.67358800761089
21.4870350733399 2.02129251181368
21.507541211322 1.56696391364898
21.528047349304 1.99810221311678
21.548553487286 2.23137407688376
21.569059625268 2.17302950494992
21.58956576325 1.66681849731525
21.610071901232 1.27524105397976
21.630578039214 1.59204717494344
21.651084177196 1.8359868602063
21.671590315178 1.52789344310167
21.69209645316 1.63651692362954
21.7126025911421 1.49519063512326
21.7331087291241 1.33308124424948
21.7536148671061 1.40018875100822
21.7741210050881 1.51942982206613
21.7946271430701 1.20122112408988
21.8151332810521 1.06014599041281
21.8356394190341 1.03370442103491
21.8561455570161 0.715646415956187
21.8766516949981 0.82472197517664
21.8971578329802 0.933847765362935
21.9176639709622 0.751357119848406
21.9381701089442 0.714750038633052
21.9586762469262 0.813609855050206
21.9791823849082 0.902103235766536
21.9996885228902 0.584396847448708
22.0201946608722 0.558407356763388
22.0407007988542 0.813718097043911
22.0612069368362 0.277412401623609
22.0817130748183 0.491156937169149
22.1022192128003 0.652868370347198
22.1227253507823 0.585463367824421
22.1432314887643 0.549358596267487
22.1637376267463 0.242470722343062
22.1842437647283 -0.0747835872821887
22.2047499027103 0.420512334058404
22.2252560406923 0.145025153031504
22.2457621786743 0.54667153630378
22.2662683166564 0.240034817208565
22.2867744546384 0.120948329079192
22.3072805926204 0.0227454052489933
22.3277867306024 0.247509379051304
22.3482928685844 0.107740250486123
22.3687990065664 -0.0423953137798818
22.3893051445484 0.0679360195866217
22.4098112825304 0.126234250585634
22.4303174205124 0.278332712550487
22.4508235584944 0.0346480721478504
22.4713296964765 -0.0319030039556112
22.4918358344585 0.0265961509067685
22.5123419724405 -0.0294377965983426
22.5328481104225 0.164578486862388
22.5533542484045 -0.00593833204437244
22.5738603863865 0.136095080014709
22.5943665243685 0.153178723039632
22.6148726623505 0.0244792636970643
22.6353788003325 0.0833300353203388
22.6558849383146 -0.0973522954238784
22.6763910762966 0.11784893813108
22.6968972142786 0.0726837359852133
22.7174033522606 0.215068764805189
22.7379094902426 -0.0904126420756606
22.7584156282246 -0.0312604846573341
22.7789217662066 0.027941903726834
22.7994279041886 0.180944523076844
22.8199340421706 -0.186835959940637
22.8404401801527 0.101683788007724
22.8609463181347 -0.0576628997447397
22.8814524561167 0.158040643468639
22.9019585940987 -0.157455582352141
22.9224647320807 0.141681756126254
22.9429708700627 -0.121630674429508
22.9634770080447 -0.0619762073527617
22.9839831460267 0.133145157356493
23.0044892840087 -0.0779332469684098
23.0249954219908 -0.0806280869941374
23.0455015599728 0.177143970612643
23.0660076979548 -0.00253374081473345
23.0865138359368 -0.161327887942935
23.1070199739188 0.00803348175368224
23.1275261119008 0.187861749082809
23.1480322498828 -0.153093085955557
23.1685383878648 -0.066914356694747
23.1890445258468 -0.0327687298014281
23.2095506638289 0.0639271280577325
23.2300568018109 -0.151826783117265
23.2505629397929 0.111636203340247
23.2710690777749 0.114732754096934
23.2915752157569 -0.0904537975138713
23.3120813537389 0.183576548507833
23.3325874917209 -0.0631762078379541
23.3530936297029 -0.0182120665512329
23.3735997676849 0.0997189723679974
23.3941059056669 -0.0739664244135971
23.414612043649 -0.174684923562683
23.435118181631 0.120480141587406
23.455624319613 -0.0218045622966621
23.476130457595 -0.0911223685482218
23.496636595577 -0.0666399438339396
23.517142733559 -0.0108572881538154
23.537648871541 0.0137255984921507
23.558155009523 0.121692049437292
23.578661147505 0.0942920646816092
23.5991672854871 0.171108977558435
23.6196734234691 0.081309454734436
23.6401795614511 0.0748934962096122
23.6606856994331 0.141444435317297
23.6811918374151 0.0101289387241572
23.7016979753971 0.212197006430193
23.7222041133791 0.153898638435404
23.7427102513611 0.126900501406457
23.7632163893431 -0.0562974046566482
23.7837225273252 -0.145695079753911
23.8042286653072 0.0624184659086522
23.8247348032892 -0.0731677574629425
23.8452409412712 -0.021203749868695
23.8657470792532 0.114143822024728
23.8862532172352 0.0932916248839926
23.9067593552172 -0.0733436746242339
23.9272654931992 0.228821256833382
23.9477716311812 0.135203085923506
23.9682777691633 0.135385145979472
23.9887839071453 0.0731174370012799
24.0092900451273 0.29214995898893
24.0297961831093 -0.103350621390911
24.0503023210913 -0.102967637471577
24.0708084590733 0.1162155774136
24.0913145970553 0.0125323565979509
24.1118207350373 0.0755660334148112
24.1323268730193 -0.142600058802486
24.1528330110013 0.160117413279391
24.1733391489834 -0.0266982170062228
24.1938452869654 0.119869717007339
24.2143514249474 0.151904548653409
24.2348575629294 -0.0660103887346787
24.2553637009114 -0.00262509515692422
24.2758698388934 -0.0850229039466613
24.2963759768754 0.0513795182294436
24.3168821148574 0.177415504704724
24.3373882528394 0.0535017221458463
24.3578943908215 -0.00786182944718949
24.3784005288035 -0.14209181674105
24.3989066667855 0.0362284269309319
24.4194128047675 0.0687655682354222
24.4399189427495 0.247186273839088
24.4604250807315 -0.105592789591404
24.4809312187135 0.0104283779439455
24.5014373566955 0.157749776445137
24.5219434946775 0.200954739245504
24.5424496326596 0.212959933011713
24.5629557706416 0.110432024410431
24.5834619086236 -0.0337123198916759
24.6039680466056 0.0513602334387261
24.6244741845876 0.0427330177349697
24.6449803225696 -0.00751063366961124
24.6654864605516 -0.109787387441683
24.6859925985336 0.0275694230854199
24.7064987365156 0.123309797911698
24.7270048744977 0.0836837370371523
24.7475110124797 0.012857907128448
24.7680171504617 0.0462489748522524
24.7885232884437 -0.0973930597914343
24.8090294264257 0.227765136530721
24.8295355644077 0.198806897152051
24.8500417023897 0.013648888739224
24.8705478403717 0.0264577779589052
24.8910539783537 0.101816898144429
24.9115601163358 -0.12485708403754
24.9320662543178 -0.0911282881453532
24.9525723922998 0.0676507387126751
24.9730785302818 0.091063329869879
24.9935846682638 0.166609485326258
25.0140908062458 0.085955871748479
25.0345969442278 -0.150897510863458
25.0551030822098 -0.0806283584666133
25.0756092201918 0.0417743582294063
25.0961153581738 0.00797730589126822
25.1166214961559 0.182563817852306
25.1371276341379 -0.0594661058874819
25.1576337721199 0.0943875346719059
25.1781399101019 0.164958072863802
25.1986460480839 -0.0873378246451256
25.2191521860659 0.129166508811788
25.2396583240479 -0.0188622600987891
25.2601644620299 0.218575868623142
25.2806706000119 0.0914808949775821
25.301176737994 0.0477694856311973
25.321682875976 -0.131308359416012
25.342189013958 0.0750806931692872
25.36269515194 0.0627699767204286
25.383201289922 -0.0224071754292547
25.403707427904 0.0799659033869039
25.424213565886 0.0261392131689047
25.444719703868 0.180696087250081
25.46522584185 -0.0917801410362347
25.4857319798321 -0.0933728050233746
25.5062381178141 -0.0636652380446725
25.5267442557961 0.0285925598998713
25.5472503937781 0.0167339221435908
25.5677565317601 0.109092182019819
25.5882626697421 0.191084006195222
25.6087688077241 0.0439593946698011
25.6292749457061 0.0531350141102217
25.6497810836881 0.0831941978498179
25.6702872216702 0.019553612555256
25.6907933596522 -0.0961200751067972
25.7112994976342 -0.0971601984696751
25.7318056356162 0.0371418825088101
25.7523117735982 -0.203505805546863
25.7728179115802 0.180896737363306
25.7933240495622 0.169516177905984
25.8138301875442 0.0748525160811706
25.8343363255262 -0.0614275814444675
25.8548424635082 0.0731758853290696
25.8753486014903 0.0515795830684489
25.8958547394723 -0.0428831548929967
25.9163608774543 -0.0539623285552667
25.9368670154363 0.00792539541497184
25.9573731534183 0.0281966836843857
25.9778792914003 0.142268202919642
25.9983854293823 0.0897232864540729
26.0188915673643 0.162228600954346
26.0393977053463 0.141034146420461
26.0599038433284 0.151139922852419
26.0804099813104 0.202962596916885
26.1009161192924 0.119418835280526
26.1214222572744 0.0463419712766759
26.1419283952564 0.171232004905334
26.1624345332384 0.108672269499835
26.1829406712204 0.191996098393511
26.2034468092024 0.233703491586363
26.2239529471844 0.150461115745056
26.2444590851665 -0.00564769579707547
26.2649652231485 0.244543723626635
26.2854713611305 0.276035374016188
26.3059774991125 0.015910588704916
26.3264836370945 -0.0774972989738474
26.3469897750765 0.204145044313232
26.3674959130585 0.246254285232819
26.3880020510405 0.0279970904515816
26.4085081890225 0.0181234599695197
26.4290143270046 0.341633393786633
26.4495204649866 0.133943558569589
26.4700266029686 0.186720620985053
26.4905327409506 -0.0417020856336412
26.5110388789326 0.0215921053801738
26.5315450169146 0.105769860693164
26.5520511548966 0.0337478469719961
26.5725572928786 0.253442730883337
26.5930634308606 0.22318784576052
26.6135695688426 0.182566524936878
26.6340757068247 0.173245435079078
26.6545818448067 -0.0235254238128796
26.6750879827887 -0.0535793850723288
26.6955941207707 -0.0627497820326026
26.7161002587527 -0.155203281360368
26.7366063967347 0.0961434502777093
26.7571125347167 0.00379041288162829
26.7776186726987 -0.00517906021527748
26.7981248106807 -0.253681635679675
26.8186309486628 0.0603660198217704
26.8391370866448 0.124463906289057
26.8596432246268 -0.13430464294448
26.8801493626088 0.159060372121157
26.9006555005908 0.0566422848193037
26.9211616385728 0.0792744284832919
26.9416677765548 0.122790136446456
26.9621739145368 0.197606075375461
26.9826800525188 -0.0816944213963575
27.0031861905009 0.128638646130999
27.0236923284829 0.161938611290864
27.0441984664649 0.0807054740832375
27.0647046044469 0.176605901174787
27.0852107424289 0.168389892565511
27.1057168804109 0.0873074482554107
27.1262230183929 0.0687752349111527
27.1467291563749 0.0711265858660696
27.1672352943569 -0.0410551655465046
27.187741432339 0.253063314006763
27.208247570321 -0.00485130880746032
27.228753708303 0.133117632677491
27.249259846285 0.0107201384616187
27.269765984267 0.180039541878255
27.290272122249 0.0785758429273989
27.310778260231 0.0917457082757189
27.331284398213 0.167465804589881
27.351790536195 0.211986131869885
27.3722966741771 0.277390023449064
27.3928028121591 0.155344145994085
27.4133089501411 0.252098499504948
27.4338150881231 0.150986417314987
27.4543212261051 0.154091232757534
27.4748273640871 0.13641294583259
27.4953335020691 0.160451556540155
27.5158396400511 0.0907903982135613
27.5363457780331 0.281596137519477
27.5568519160151 0.0453687744579004
27.5773580539972 -0.0449750243045002
27.5978641919792 -0.104018592101059
27.6183703299612 0.0462990841196278
27.6388764679432 0.134166991306157
27.6593826059252 -0.0695815372081393
27.6798887439072 0.0704701652434068
27.7003948818892 0.0439054319941281
27.7209010198712 0.0382242630440249
27.7414071578532 0.0534266583930971
27.7619132958353 -0.0771540486253222
27.7824194338173 -0.0514345246778994
27.8029255717993 0.182668563568699
27.8234317097813 -0.135261450552195
27.8439378477633 0.255192099626088
27.8644439857453 0.0206958807702118
27.8849501237273 0.0570832262135111
27.9054562617093 0.0935208026226528
27.9259623996913 0.0258419433309698
27.9464685376734 -0.177203351661538
27.9669746756554 0.0468849176451295
27.9874808136374 0.0106067512509723
28.0079869516194 0.21396214915599
28.0284930896014 0.0944511113601842
28.0489992275834 -0.00417636213644701
28.0695053655654 -0.071503604667236
28.0900115035474 -0.0866972828988499
28.1105176415294 0.0231592698353784
28.1310237795115 0.101816053535449
28.1515299174935 0.0138564015346943
28.1720360554755 0.00928031383311523
28.1925421934575 0.0880877904307116
28.2130483314395 -0.17680450200585
28.2335544694215 0.0687701031900969
28.2540606074035 0.0435616060185526
28.2745667453855 -0.096179993520483
28.2950728833675 -0.10045469542701
28.3155790213495 -0.116328315992932
28.3360851593316 0.117848294406988
28.3565912973136 0.0708251357727505
28.3770974352956 0.128018874771021
28.3976035732776 -0.252237155264866
28.4181097112596 0.0133903789984222
28.4386158492416 0.247818144227553
28.4591219872236 0.190629473755858
28.4796281252056 0.227241034250006
28.5001342631876 -0.131930507623338
28.5206404011697 0.0714481814691603
28.5411465391517 -0.173039565139166
28.5616526771337 0.00960625255168268
28.5821588151157 0.0985523012083735
28.6026649530977 -0.04161808583576
28.6231710910797 0.0890950914192814
28.6436772290617 0.0427751663068319
28.6641833670437 0.225672138826891
28.6846895050257 0.200286008979458
28.7051956430078 -0.0229665565687986
28.7257017809898 0.160081108848787
28.7462079189718 0.186929005232213
28.7667140569538 0.140910465914816
28.7872201949358 0.147025490896594
28.8077263329178 0.19485741351088
28.8282324708998 0.211489567091008
28.8487386088818 0.228171951636979
28.8692447468638 0.0157379004821245
28.8897508848459 0.261687413626446
28.9102570228279 0.309770491069942
28.9307631608099 0.368320466145947
28.9512692987919 0.260254005521128
28.9717754367739 0.0689044425288168
28.9922815747559 0.408855110502348
29.0127877127379 0.175939342775054
29.0332938507199 0.370157139346936
29.0537999887019 0.34567516688466
29.074306126684 0.196243425388226
29.094812264666 0.1822785815243
29.115318402648 0.324613968626217
29.13582454063 0.498249586693975
29.156330678612 0.703185435727576
29.176836816594 0.449838182393685
29.197342954576 0.37362449335897
29.217849092558 0.526627701956763
29.23835523054 0.533847808187065
29.258861368522 0.593201478716542
29.2793675065041 0.642188713545195
29.2998736444861 0.795392846006356
29.3203797824681 0.948647209433359
29.3408859204501 0.549868470492871
29.3613920584321 1.06780662918489
29.3818981964141 0.679545018842755
29.4024043343961 1.22883363946646
29.4229104723781 0.767755824389339
29.4434166103601 0.858811573611395
29.4639227483422 1.25200088713263
29.4844288863242 1.16607376495303
29.5049350243062 1.14269687373928
29.5254411622882 1.2027035468247
29.5459473002702 1.14817711754263
29.5664534382522 1.58328425255974
29.5869595762342 1.49760828520936
29.6074657142162 1.39114921549148
29.6279718521982 1.67015704340612
29.6484779901803 2.11588176895326
29.6689841281623 1.73874005879958
29.6894902661443 2.1845652462784
29.7099964041263 2.63044066472307
29.7305025421083 2.38886631413358
29.7510086800903 2.33484219450993
29.7715148180723 2.77045163918546
29.7920209560543 3.4665279814935
29.8125270940363 3.75640455476737
29.8330332320184 4.28591469234043
29.8535393700004 4.58630839421266
29.8740455079824 4.79300232705073
29.8945516459644 5.70807982418797
29.9150577839464 6.10237421895773
29.9355639219284 6.21546884469333
29.9560700599104 7.5994470347281
29.9765761978924 8.32722545572871
29.9970823358744 9.03422077436183
30.0175884738564 9.31418299062747
30.0380946118385 11.1358621045256
30.0586007498205 11.4367581160563
30.0791068878025 12.9147876918861
30.0996130257845 14.1012008320151
30.1201191637665 14.8189142031099
30.1406253017485 14.1825111385039
30.1611314397305 16.3378249715305
30.1816375777125 16.9827723688562
30.2021437156945 18.0027699971477
30.2226498536766 18.7728178564051
30.2431559916586 19.6679159466283
30.2636621296406 19.4068142678174
30.2841682676226 21.4582628199723
30.3046744056046 21.3639282697597
30.3251805435866 22.707143950513
30.3456866815686 23.6233265288987
30.3661928195506 23.3728926715837
30.3866989575326 24.0808423785678
30.4072050955147 24.4242589831845
30.4277112334967 25.4656424854336
30.4482173714787 27.4341595519819
30.4687235094607 27.8714768494961
30.4892296474427 29.9234277113094
30.5097357854247 30.2358454707552
30.5302419234067 29.4337301278336
30.5507480613887 32.6837483492111
30.5712541993707 33.6629834682211
30.5917603373528 34.923518818197
30.6122664753348 33.5486877324721
30.6327726133168 34.4968235443796
30.6532787512988 35.413759587253
30.6737848892808 34.6432458610923
30.6942910272628 33.5811156992307
30.7147971652448 32.3940357683349
30.7353033032268 30.738256068405
30.7558094412088 29.582526599441
30.7763155791909 27.9893473614428
30.7968217171729 26.5524683544104
30.8173278551549 24.3760562450105
30.8378339931369 22.9705276999098
30.8583401311189 20.8983827191083
30.8788462691009 19.1804546359393
30.8993524070829 17.1709101170695
30.9198585450649 17.0989158291655
30.9403646830469 14.9853051055607
30.9608708210289 13.5488279462551
30.981376959011 12.3519843512486
31.001883096993 11.0406076538747
31.022389234975 10.8542811874665
31.042895372957 9.32425495202428
31.063401510939 8.57552894754785
31.083907648921 7.61851984070393
31.104413786903 6.95322763149253
31.124919924885 6.61090231991362
31.145426062867 5.7269605726339
31.1659322008491 5.02015238965335
31.1864383388311 5.05297777097198
31.2069444768131 4.39835338325644
31.2274506147951 4.16044589317342
31.2479567527771 3.61008863405624
31.2684628907591 3.35144827257157
31.2889690287411 3.20744147538607
31.3094751667231 2.45931824249975
31.3299813047051 2.8258285739126
31.3504874426872 2.86947246962463
31.3709935806692 2.1944165963025
31.3914997186512 1.65482762061288
31.4120058566332 1.8027888758891
31.4325119946152 1.74246702879783
31.4530181325972 1.94261207933907
31.4735242705792 1.77822402751282
31.4940304085612 1.25971953998574
31.5145365465432 1.48084861675784
31.5350426845253 1.39994459116245
31.5555488225073 1.2565907965329
31.5760549604893 1.46745389953586
31.5965610984713 1.09503390017132
31.6170672364533 1.4205807984393
31.6375733744353 1.07951126100645
31.6580795124173 1.16557528787277
31.6785856503993 0.678772879038274
31.6990917883813 0.973270701169616
31.7195979263633 1.12198542093347
31.7401040643454 0.885333704996495
31.7606102023274 0.825815553358698
31.7811163403094 0.901764299353409
31.8016224782914 0.831929942980629
31.8221286162734 0.876729150907024
31.8426347542554 0.806995256465928
31.8631408922374 0.74772825965734
31.8836470302194 0.730178160481261
31.9041531682014 0.671011625604358
31.9246593061835 0.559811988359963
31.9451654441655 0.76116258208141
31.9656715821475 0.566730073435366
31.9861777201295 0.372347795755164
32.0066838581115 0.334265749040804
32.0271899960935 0.556650599958952
32.0476961340755 0.331169015176276
32.0682022720575 0.595320994692775
32.0887084100395 0.359523205175116
32.1092145480216 0.613358979956633
32.1297206860036 0.471411652370658
32.1502268239856 0.360764555750525
32.1707329619676 0.260584356762901
32.1912390999496 0.347954388741119
32.2117452379316 0.518707985018513
32.2322513759136 0.345761812261748
32.2527575138956 0.464532537137492
32.2732636518776 0.333353492979078
32.2937697898597 0.212641346453172
32.3142759278417 0.258646097559776
32.3347820658237 0.335951079632221
32.3552882038057 0.142472959337175
32.3757943417877 0.105295070007971
32.3963004797697 0.161917411644609
32.4168066177517 0.260256650913756
32.4373127557337 0.171146121148745
32.4578188937157 0.352919155682909
32.4783250316978 0.138909087849582
32.4988311696798 0.10203258431543
32.5193373076618 0.0756229784137863
32.5398434456438 0.340930270144652
32.5603495836258 -0.0916288738253073
32.5808557216078 0.152945546503909
32.6013618595898 0.053820197798967
32.6218679975718 0.0693284133932004
32.6423741355538 0.157803526619943
32.6628802735358 0.194245537479193
32.6833864115179 -0.0296788873623803
32.7038925494999 0.131863585428554
32.7243986874819 0.0642896225186647
32.7449048254639 -0.0449007760920499
32.7654109634459 0.137625722929744
32.7859171014279 -0.0339642137492862
32.8064232394099 -0.0180039194624744
32.8269293773919 0.0813399391235126
32.8474355153739 0.180734028675341
32.867941653356 -0.115654984140321
32.888447791338 0.0567562340098584
32.90895392932 -0.0103656502074534
32.929460067302 -0.0982706367922562
32.949966205284 -0.0524399712689998
32.970472343266 -0.00655907477990114
32.990978481248 -0.0127112806582941
33.01148461923 0.116603411095822
33.031990757212 0.0168016671491129
33.0524968951941 0.0212168208349127
33.0730030331761 -0.0264011278467787
33.0935091711581 0.228114487770705
33.1140153091401 -0.0798196656459688
33.1345214471221 -0.0960369214301342
33.1550275851041 -0.0226771403377288
33.1755337230861 0.0715662050538518
33.1960398610681 -0.0216402185887252
33.2165459990501 0.0518702554012062
33.2370521370322 -0.0412357063096871
33.2575582750142 -0.0717914370547382
33.2780644129962 0.0852030631660524
33.2985705509782 0.0234977943526853
33.3190766889602 -0.0173239101615065
33.3395828269422 -0.0685120503765231
33.3600889649242 -0.140483292959031
33.3805951029062 0.0788466056048633
33.4011012408882 0.2044767351346
33.4216073788702 -0.0552595710364887
33.4421135168523 -0.169112312908402
33.4626196548343 0.0712518428521939
33.4831257928163 0.186666229578632
33.5036319307983 -0.0207858193957555
33.5241380687803 0.105145695929033
33.5446442067623 0.0436274422196633
33.5651503447443 0.232159419476136
33.5856564827263 0.0874082943651168
33.6061626207083 0.0260407335532731
33.6266687586904 0.037640070373938
33.6471748966724 -0.0236270285062213
33.6676810346544 0.092239436912794
33.6881871726364 0.103989466630985
33.7086933106184 0.209539727315018
33.7291994486004 0.0443068856315602
33.7497055865824 0.295790941580611
33.7702117245644 0.172325228495503
33.7907178625464 0.236409746376238
33.8112240005285 0.279711161889481
33.8317301385105 0.114729475035233
33.8522362764925 0.178964685813493
33.8727424144745 0.201583460890929
33.8932485524565 0.255502466934207
33.9137546904385 0.371971703943327
33.9342608284205 0.332241171918288
33.9547669664025 0.344644204192426
33.9752731043845 0.284180800765738
33.9957792423666 0.223767628304893
34.0162853803486 0.298821353476556
34.0367915183306 0.498925309614061
34.0572976563126 0.313662830050742
34.0778037942946 0.503450581453264
34.0983099322766 0.589121897154962
34.1188160702586 0.362343443822502
34.1393222082406 0.593948554789218
34.1598283462226 0.398520563388442
34.1803344842047 0.619809469620174
34.2008406221867 0.486981940151082
34.2213467601687 0.218787974981166
34.2418528981507 0.273560907443758
34.2623590361327 0.370050737538858
34.2828651741147 0.289507465266468
34.3033713120967 0.438181090626585
34.3238774500787 0.263988280285879
34.3443835880607 0.277345700911014
34.3648897260427 0.436586685835325
34.3853958640248 0.366711235058811
34.4059020020068 0.442719348581473
34.4264081399888 0.362527693069976
34.4469142779708 0.428219601857655
34.4674204159528 0.348128408277842
34.4879265539348 0.122254112330538
34.5084326919168 0.177680047349077
34.5289388298988 0.462322880000123
34.5494449678808 0.226182610283679
34.5699511058629 0.26092590486641
34.5904572438449 0.285302763748316
34.6109633818269 0.163896520262731
34.6314695198089 0.292540507742988
34.6519756577909 0.12956805952242
34.6724817957729 0.247895842267694
34.6929879337549 0.168357189312143
34.7134940717369 0.286785433989102
34.7340002097189 0.061513909631902
34.754506347701 0.0237926162405441
34.775012485683 -0.0451284461849717
34.795518623665 0.0943340556886879
34.816024761647 0.0359301218615228
34.836530899629 0.248409752333533
34.857037037611 -0.0390603862286145
34.877543175593 -0.0139802938249204
34.898049313575 0.0424000295446162
34.918555451557 -0.0365860827866721
34.9390615895391 0.0823947025145481
34.9595677275211 0.128509052114944
34.9800738655031 -0.0128263673188185
35.0005800034851 0.0542217775465944
35.0210861414671 -0.0140965132888172
35.0415922794491 0.125968760174947
35.0620984174311 -0.129749068728781
35.0826045554131 -0.0833333333333334
35.1031106933951 0.00341646693403652
35.1236168313771 -0.118116835166085
35.1441229693592 0.104150093699636
35.1646291073412 -0.0693660798021349
35.1851352453232 0.0488346443286032
35.2056413833052 0.0629189327585166
35.2261475212872 0.00413678548760521
35.2466536592692 0.0495715358492026
35.2671597972512 -0.092443482823358
35.2876659352332 -0.0260749371967433
35.3081720732152 0.0090938393957134
35.3286782111973 -0.0806871530459879
35.3491843491793 -0.0593119811008276
35.3696904871613 0.0350300884768411
35.3901966251433 -0.120577610979648
35.4107027631253 0.0467815871963713
35.4312089011073 0.016274349671566
35.4517150390893 -0.0558493235540638
35.4722211770713 -0.00292276581385165
35.4927273150533 -0.158279310441131
35.5132334530354 0.0301643758974319
35.5337395910174 0.0519916265351702
35.5542457289994 0.084285774805417
35.5747518669814 0.0957968207081725
35.5952580049634 0.0761080975767702
35.6157641429454 -0.0581137279221238
35.6362702809274 -0.0777019891218421
35.6567764189094 -0.0555733526890519
35.6772825568914 0.070772181376247
35.6977886948735 -0.0111653869259454
35.7182948328555 0.125697275737704
35.7388009708375 0.0126101693671958
35.7593071088195 0.0245732939625295
35.7798132468015 -0.0363300171429615
35.8003193847835 -0.0138497639492774
35.8208255227655 0.133680720210249
35.8413316607475 -0.124988564664383
35.8618377987295 -0.0398576185731725
35.8823439367116 -0.0484264415161201
35.9028500746936 -0.0256950334932258
35.9233562126756 -0.0341633945044894
35.9438623506576 -0.0738315245499109
35.9643684886396 0.178217243037176
35.9848746266216 0.0136495749234385
36.0053807646036 -0.150867862224457
36.0258869025856 -0.00347362852700972
36.0463930405676 0.279387502802946
36.0668991785496 0.218548865098744
36.0874053165317 -0.0297395416396157
36.1079114545137 0.0241056159211998
36.1284175924957 0.0780010044478572
36.1489237304777 0.225696623940357
36.1694298684597 0.0192758077320313
36.1899360064417 -0.0620947775104519
36.2104421444237 0.12741820154624
36.2309482824057 0.0565647449021076
36.2514544203877 -0.139238480776183
36.2719605583698 0.0087585245113686
36.2924666963518 0.0213890940980954
36.3129728343338 0.127819894650664
36.3334789723158 0.0363842595024083
36.3539851102978 -0.0758344780133388
36.3744912482798 -0.120841503908499
36.3949973862618 0.146701701162183
36.4155035242438 0.143461803865373
36.4360096622258 0.129855470867739
36.4565158002079 0.220466035502613
36.4770219381899 -0.0742898355633371
36.4975280761719 0.089337857669888
36.5180342141539 0.107182448535622
36.5385403521359 0.0209106037005309
36.5590464901179 0.0805223231646154
36.5795526280999 0.161017606927875
36.6000587660819 0.189479788323644
36.6205649040639 0.207575534018587
36.641071042046 0.14238817734604
36.661577180028 0.0772510516393344
36.68208331801 0.126747490231804
36.702589455992 0.332544159790116
36.723095593974 0.03839106031427
36.743601731956 0.0463715251375991
36.764107869938 0.158568887593437
36.78461400792 0.0728998143484503
36.805120145902 0.0185309720693055
36.825626283884 0.0683790274226694
36.8461324218661 0.232860647075209
36.8666385598481 0.36614249769359
36.8871446978301 0.0307245792778131
36.9076508358121 0.101606891827879
36.9281569737941 0.141289435343786
36.9486631117761 0.295605543158869
36.9691692497581 0.0958052152731266
36.9896753877401 0.375221785019893
37.0101815257221 0.154688585732502
37.0306876637042 0.392538950744286
37.0511938016862 0.286689546721912
37.0716999396682 0.24339037366538
37.0922060776502 0.564724764908023
37.1127122156322 0.542359387116509
37.1332183536142 0.415877573624169
37.1537244915962 0.362362657764339
37.1742306295782 0.34014797287035
37.1947367675602 0.48465018560887
37.2152429055423 0.650035962646566
37.2357490435243 0.54463863731677
37.2562551815063 0.751791542952816
37.2767613194883 0.521494679554704
37.2972674574703 0.645414713789101
37.3177735954523 0.696468312322673
37.3382797334343 0.664238808488754
37.3587858714163 0.71539286895401
37.3792920093983 0.641597160385108
37.3997981473804 0.724101682782048
37.4203042853624 0.77540643614483
37.4408104233444 0.837178087140121
37.4613165613264 0.482333302434587
37.4818226993084 1.01295541536156
37.5023288372904 0.835294425921046
37.5228349752724 0.928517000779705
37.5433411132544 0.771789806604206
37.5638472512364 0.844279510061215
37.5843533892185 0.895986111150734
37.6048595272005 0.781076276539427
37.6253656651825 0.80163333956063
37.6458718031645 0.70765730021434
37.6663779411465 0.71789815850056
37.6868840791285 0.696939247752622
37.7073902171105 1.15519723463719
37.7278963550925 0.748922119154271
37.7484024930745 0.936447234637192
37.7689086310565 0.832355914419288
37.7894147690386 0.676231491833894
37.8099209070206 0.759740633547674
37.8304270450026 0.70788333956063
37.8509331829846 0.770659609872761
37.8714393209666 0.823069444484067
37.8919454589486 0.708862843394549
37.9124515969306 0.782206473270872
37.9329577349126 0.730600334113038
37.9534638728946 0.731127759254379
37.9739700108767 0.398372082028229
37.9944761488587 0.701083302434587
38.0149822868407 0.483011420473455
38.0354884248227 0.317073102811497
38.0559945628047 0.192851682782048
38.0765007007867 0.568680493718441
38.0970068387687 0.454976202287343
38.1175129767507 0.289238808488754
38.1380191147327 0.488134978989339
38.1585252527148 0.301664713789101
38.1790313906968 0.229828012888037
38.1995375286788 0.189291542952816
38.2200436666608 0.377971970650103
38.2405498046428 0.254202629313232
38.2610559426248 0.307566852275537
38.2815620806068 0.110981306203683
38.3020682185888 0.247779324431005
38.3225743565708 0.165877573624169
38.3430804945529 0.271526053783175
38.3635866325349 0.158474764908023
38.3840927705169 0.14964037366538
38.4045989084989 0.109606213388578
38.4251050464809 0.111288950744286
38.4456111844629 0.196355252399168
38.4661173224449 0.29188845168656
38.4866234604269 0.0437218819397932
38.5071295984089 0.0456055431588686
38.5276357363909 0.151706102010452
38.548141874373 -0.0338097748387882
38.568648012355 0.0307245792778131
38.589154150337 0.0744758310269233
38.609660288319 0.0661939804085421
38.630166426301 0.130879027422669
38.650672564283 0.0081143054026388
38.671178702265 0.0728998143484503
38.691684840247 -0.0497644457398962
38.712190978229 0.0151215251375991
38.7326971162111 0.00714106031426998
38.7532032541931 0.145044159790116
38.7737093921751 -0.0711691764348624
38.7942155301571 -0.0164989483606656
38.8147216681391 0.11113817734604
38.8352278061211 -0.063257799314746
38.8557339441031 0.126979788323644
38.8762400820851 0.0881009402612085
38.8967462200671 -0.0861443435020514
38.9172523580492 0.0521606037005309
38.9377584960312 -0.0074008847977115
38.9582646340132 0.0164211910032213
38.9787707719952 0.0611268311033296
38.9992769099772 0.0954660355026132
39.0197830479592 -0.0159778624655946
39.0402891859412 0.0288784705320396
39.0607953239232 0.105035034495516
39.0813014619052 0.0249918294248342
39.1018075998873 -0.0758344780133388
39.1223137378693 -0.0428103663077594
39.1428198758513 -0.0514026903030047
39.1633260138333 0.0650552166675922
39.1838321518153 -0.0476033120626358
39.2043382897973 0.0272883901729785
39.2248444277793 -0.0956863432922321
39.2453505657613 0.0834724875417326
39.2658567037433 0.0439315493415395
39.2863628417253 0.212774175440522
39.3068689797074 -0.0245829674946542
39.3273751176894 -0.074389879463988
39.3478812556714 -0.0101704541433238
39.3683873936534 0.210349202143182
39.3888935316354 -0.00658091060446953
39.4093996696174 0.047372540947054
39.4299058075994 0.195126223464419
39.4504119455814 -0.10498652971904
39.4709180835634 -0.00921571860332338
39.4914242215455 -0.0175613431884319
39.5119303595275 -0.109190070141032
39.5324364975095 0.0266463039235769
39.5529426354915 0.131282908954027
39.5734487734735 -0.0244469217163467
39.5939549114555 0.309456811912455
39.6144610494375 -0.054505890159569
39.6349671874195 -0.0642516945990836
39.6554733254015 0.103136065260577
39.6759794633836 0.0726573894194128
39.6964856013656 0.0734789445440907
39.7169917393476 -0.061065936032056
39.7374978773296 -0.0497272523090274
39.7580040153116 0.0554116623798432
39.7785101532936 0.0981008080345559
39.7990162912756 0.0679235179884439
39.8195224292576 -0.0663702077584929
39.8400285672396 0.0389696307937458
39.8605347052217 0.0610263669784931
39.8810408432037 -0.0106166658709176
39.9015469811857 -0.00929280108781949
39.9220531191677 0.0545812946611205
39.9425592571497 0.00392228804256911
39.9630653951317 -0.130019820943473
39.9835715331137 0.00675513485936974
40.0040776710957 -0.0335030117052785
40.0245838090777 -0.000794260637417943
40.0450899470598 -0.00970194527038204
40.0655960850418 -0.0393927322708375
40.0861022230238 -0.037783288305451
40.1066083610058 0.0367930532924442
40.1271144989878 0.0905862925228481
40.1476206369698 0.123596429385761
40.1681267749518 -0.0620932027854847
40.1886329129338 -0.0706492706575548
40.2091390509158 0.00169915446874758
40.2296451888978 -0.0300688561057746
40.2501513268799 -0.0409533023811216
40.2706574648619 0.0211291489760402
40.2911636028439 0.052011831299044
40.3116697408259 -0.0108052554121102
40.3321758788079 0.0722612221759109
40.3526820167899 0.00954459739644076
40.3731881547719 0.0197948702494792
40.3936942927539 -0.0532379592649735
40.4142004307359 0.227946108853082
40.434706568718 0.0508470746036468
40.4552127067 -0.00120172867994661
40.475718844682 -0.0219503009976981
40.496224982664 -0.0530653090162743
40.516731120646 0.0512865805976583
40.537237258628 0.0202720345107662
40.55774339661 -0.0211089472769506
40.578249534592 -0.041606364765492
40.598755672574 -0.00997021795485797
40.6192618105561 0.0217161598216179
40.6397679485381 0.0326194352306026
40.6602740865201 -0.0605937250612374
40.6807802245021 -0.0391733210539021
40.7012863624841 -0.0593693527473916
40.7217925004661 -0.00659848680837227
40.7422986384481 -0.00586072323684428
40.7628047764301 -0.00507272869947417
40.7833109144121 0.0270154968037378
40.8038170523942 0.0591539532727918
40.8243231903762 -0.0128240259589788
40.8448293283582 -0.00141844089157406
40.8653354663402 -0.0524626248583274
40.8858416043222 0.146543422140761
40.9063477423042 -0.102316966560975
40.9268538802862 -0.0698771242968684
40.9473600182682 -0.00641854198970848
40.9678661562502 -0.0262430620500398
40.9883722942322 0.00606598218880428
41.0088784322143 0.080091924060157
41.0293845701963 -0.0645819031026483
41.0498907081783 0.0407945007003884
41.0703968461603 0.0316378021359338
41.0909029841423 -0.0816353321293454
41.1114091221243 0.128058431237884
41.1319152601063 0.00446909223762204
41.1524213980883 0.0892633175365355
41.1729275360703 0.236607773801291
41.1934336740524 -0.00141420563477823
41.2139398120344 -0.0831359541050055
41.2344459500164 0.0109898170324882
41.2549520879984 0.0322491524691574
41.2754582259804 0.0327253855383352
41.2959643639624 -0.0500814837599785
41.3164705019444 0.0338285445742167
41.3369766399264 0.0865388038742537
41.3574827779084 -0.0377840391932003
41.3779889158905 -0.0683066512948126
41.3984950538725 -0.0073055751383323
41.4190011918545 0.0329123986506568
41.4395073298365 -0.0414027299278456
41.4600134678185 -0.0323342942071727
41.4805196058005 0.101784372479342
41.5010257437825 -0.0140467298683006
41.5215318817645 0.0785057320832319
41.5420380197465 0.0461084250006062
41.5625441577286 0.0241780155504894
41.5830502957106 0.127297837066214
41.6035564336926 0.0221345562144482
41.6240625716746 0.114938172995191
41.6445687096566 -0.0213746459248917
41.6650748476386 0.0194460994542015
41.6855809856206 0.0707337424658031
41.7060871236026 0.0387382831099137
41.7265932615846 0.110959721386533
41.7470993995667 -0.0563519427043394
41.7676055375487 0.0472199575039638
41.7881116755307 0.0987587553447755
41.8086178135127 -0.0475688825152372
41.8291239514947 0.108237043923925
41.8496300894767 0.191176534662263
41.8701362274587 -0.142500410300224
41.8906423654407 -0.0698771242968684
41.9111485034227 -0.10261385516828
41.9316546414047 0.0938663115928161
41.9521607793868 -0.0221032906802452
41.9726669173688 0.0494773380125354
41.9931730553508 0.0794415310044914
42.0136791933328 0.0365392882956228
42.0341853313148 -0.00631272344740397
42.0546914692968 0.107135495775411
42.0751976072788 -0.0918660540359312
42.0957037452608 0.0425159604519014
42.1162098832428 0.0206982059055761
42.1367160212249 0.0510140156584262
42.1572221592069 0.0292967230437849
42.1777282971889 0.059712994728319
42.1982344351709 0.0797628307120284
42.2187405731529 -0.0459704356717535
42.2392467111349 -0.0362368044230267
42.2597528491169 0.0464637244582087
42.2802589870989 -0.00620218236138048
42.3007651250809 0.128682141784872
42.321271263063 0.0865333635636338
42.341777401045 0.200684816308237
42.362283539027 0.0232198333520162
42.382789677009 0.0333050813616369
42.403295814991 0.1684405603371
42.423801952973 0.0119596036117379
42.444308090955 0.0221955445188848
42.464814228937 0.0324817163918737
42.485320366919 0.115734785897371
42.5058265049011 0.0532047530353775
42.5263326428831 0.0636416178058924
42.5468387808651 0.0428787135422493
42.5673449188471 0.0325827069111149
42.5878510568291 -0.0714130687541776
42.6083571948111 -0.0329154544587555
42.6288633327931 0.130632390802508
42.6493694707751 -0.0807695329703856
42.6698756087571 -0.0212878924441042
42.6903817467391 0.184077312381352
42.7108878847212 -0.0792572518273489
42.7313940227032 0.00120841492979185
42.7519001606852 0.165057645986108
42.7724062986672 0.0372904413415992
42.7929124366492 0.0970734676629326
42.8134185746312 0.208990058283441
42.8339247126132 0.0188735465364588
42.8544308505952 0.151723932421985
42.8749369885772 -0.0487087840599804
42.8954431265593 -0.0407579362427704
42.9159492645413 0.0505764758736151
42.9364554025233 0.131544452289176
42.9569615405053 0.275062659670579
42.9774676784873 0.11654776468449
42.9979738164693 0.21849976733091
43.0184799544513 0.164252000943172
43.0389860924333 0.16213779885461
43.0594922304153 0.191323827731889
43.0799983683974 0.0330600875750111
43.1005045063794 0.166513245050641
43.1210106443614 0.477099966825447
43.1415167823434 0.214820252899428
43.1620229203254 0.358840769939251
43.1825290583074 0.169578184611582
43.2030351962894 0.199115830249756
43.2235413342714 0.364120373520438
43.2440474722534 0.300008481090296
43.2645536102355 0.308863486292662
43.2850597482175 0.16151872246087
43.3055658861995 0.410057522928254
43.3260720241815 0.366979887694813
43.3465781621635 0.417702483427214
43.3670843001455 0.405975310125457
43.3875904381275 0.383881701122875
43.4080965761095 0.455588323086136
43.4286027140915 0.391928509348571
43.4491088520736 0.255402259910182
43.4696149900556 0.587676241437635
43.4901211280376 0.690833787264263
43.5106272660196 0.544041564056734
43.5311334040016 0.459799571815046
43.5516395419836 0.583941143872534
43.5721456799656 0.46854961356253
43.5926518179476 0.592791647551702
43.6131579559296 0.529583912506716
43.6336640939116 0.810176408427572
43.6541702318937 0.663735801980936
43.6746763698757 0.538178759833476
43.6951825078577 0.610588615318524
43.7156886458397 0.672632035102748
43.7361947838217 0.703475685852814
43.7567009218037 0.796869567568722
43.7772070597857 0.567397013583805
43.7977131977677 0.702558023898064
43.8182193357497 0.535685931844831
43.8387254737318 0.691780737424107
43.8592316117138 0.566675773969225
43.8797377496958 0.712454374813518
43.9002438876778 0.722866539956986
43.9207500256598 0.56666226939963
43.9412561636418 0.608424896474783
43.9617623016238 0.368987754515778
43.9822684396058 0.483767510189281
44.0027745775878 0.619430830161959
44.0232807155699 0.463477714433813
44.0437868535519 0.442991496338176
44.0642929915339 0.453805509208381
44.0847991295159 0.537586419711094
44.1053052674979 0.496417561179649
44.1258114054799 0.267798933614047
44.1463175434619 0.195480537014286
44.1668236814439 0.341962371380367
44.1873298194259 0.363494436712291
44.207835957408 0.291326733010056
44.22834209539 0.32337592694033
44.248848233372 0.272142018503113
44.269354371354 0.241791674365071
44.289860509336 0.201074894526204
44.310366647318 0.118741678986513
44.3308727853 0.0677086944126639
44.351378923282 0.13130927413799
44.371885061264 0.330376751495825
44.392391199246 0.0607444598195016
44.4128973372281 -0.00050426755764621
44.4334034752101 0.240380569364381
44.4539096131921 0.0125656372522507
44.4744157511741 0.0660509361059622
44.4949218891561 0.0154197992588491
44.5154280271381 0.00650556004424463
44.5359341651201 0.0913915517954821
44.5564403031021 -0.0736722254874383
44.5769464410841 0.0842308948621499
44.5974525790662 0.0755175795109134
44.6179587170482 0.150187828458852
44.6384648550302 0.287408308372633
44.6589709930122 0.0705123525855895
44.6794771309942 0.134916627764388
44.6999832689762 0.230621133909028
44.7204894069582 0.149292537686177
44.7409955449402 0.0263475057625013
44.7615016829222 -0.00279729519533234
44.7820078209043 0.166024801479343
44.8025139588863 0.0536471291198595
44.8230200968683 -0.0482636456071148
44.8435262348503 0.0477924772984195
44.8640323728323 0.123065497836463
44.8845385108143 -0.0203612506596523
44.9050446487963 0.0341788984767413
44.9255507867783 0.17210261191231
44.9460569247603 -0.0545067770196119
44.9665630627424 -0.156065934985692
44.9870692007244 0.062602757495284
45.0075753387064 0.0834050142754356
45.0280814766884 0.166757502021429
45.0485876146704 0.0626602207332647
45.0690937526524 0.0836131704109423
45.0895998906344 -0.0620503156122049
45.1101060286164 0.0631697626638235
45.1306121665984 0.125940071905694
45.1511183045805 0.0220939454467394
45.1716244425625 -0.019201950046373
45.1921305805445 0.05413571875969
45.2126367185265 0.210856951864928
45.2331428565085 0.0551284159360086
45.2536489944905 0.0557001109729309
45.2741551324725 -0.00617796302430473
45.2946612704545 0.0361608606109682
45.3151674084365 -0.0152000847879167
45.3356735464185 0.0793225341123737
45.3561796844006 -0.076104616021494
45.3766858223826 -0.0648148685228529
45.3971919603646 0.0611084432749636
45.4176980983466 0.155831986038622
45.4382042363286 0.146439093101456
45.4587103743106 0.0641797644634649
45.4792165122926 0.00280400012464921
45.4997226502746 0.149811800085009
45.5202287882566 0.119786497677877
45.5407349262387 0.0689780929032546
45.5612410642207 -0.0442800809055263
45.5817472022027 -0.00123802374846516
45.6022533401847 -0.0935624022922286
45.6227594781667 0.00814888947374837
45.6432656161487 0.172410412205567
45.6637717541307 0.0867221659032282
45.6842778921127 0.0323341505667313
45.7047840300947 0.144663032862743
45.7252901680768 0.24662547945793
45.7457963060588 -0.00552850964770779
45.7663024440408 0.148617732212497
45.7868085820228 0.125730871705209
45.8073147200048 0.0716442421637645
45.8278208579868 0.142607843588162
45.8483269959688 0.338621675978401
45.8688331339508 0.274269072667815
45.8893392719328 0.0745500336564048
45.9098454099149 0.0519645589441698
45.9303515478969 0.102345981864444
45.9508576858789 0.225694302417226
45.9713638238609 0.172009520602517
45.9918699618429 0.160041636420317
46.0123760998249 0.325207316537292
46.0328822378069 0.167506560953443
46.0533883757889 0.134856036335435
46.0738945137709 0.289755742683269
46.0944006517529 0.246789013330279
46.114906789735 0.266372514943131
46.135412927717 0.369339580855158
46.155919065699 0.222356877733027
46.176425203681 0.273341072243405
46.196931341663 0.251458831052959
46.217437479645 0.27129348749502
46.237943617627 0.249511708236258
46.258449755609 0.394446826610004
46.278955893591 0.206098842616258
46.2994620315731 0.403217756255021
46.3199681695551 0.412886900859627
46.3404743075371 0.287189609763407
46.3609804455191 0.338625882966363
46.3814865835011 0.473445720468495
46.4019927214831 0.368732455603135
46.4224988594651 0.37865275503695
46.4430049974471 0.388623285436607
46.4635111354291 0.367394046802106
46.4840172734112 0.304548372466781
46.5045234113932 0.429252929097298
46.5250295493752 0.439424383360323
46.5455356873572 0.251729401922524
46.5660418253392 0.449501318117233
46.5865479633212 0.147323465277785
46.6070541013032 0.261862510070845
46.6275602392852 0.376451785829747
46.6480663772672 0.220257959221157
46.6685725152493 0.366197696911744
46.6890786532313 0.220520998901505
46.7095847912133 0.491561198523775
46.7300909291953 0.220984962445221
46.7505970671773 0.242125623999175
46.7711032051593 0.304983183185638
46.7916093431413 0.149140973337942
46.8121154811233 0.118348994456089
46.8326216191053 0.379273913206745
46.8531277570874 0.327749062923242
46.8736338950694 0.213774443605582
46.8941400330514 0.245683388587097
46.9146461710334 0.142225897867787
46.9351523090154 0.226318638114319
46.9556584469974 -0.0228717240066402
46.9761645849794 0.155071478171576
46.9966707229614 0.0518149113156344
47.0171768609434 0.115275242092201
47.0376829989254 0.439202470501277
47.0581891369075 0.231929929876194
47.0786952748895 0.118457620216954
47.0992014128715 0.150868874856889
47.1197075508535 0.0374970271293327
47.1402136888355 -0.0862412562990483
47.1607198268175 0.0192373579050793
47.1812259647995 0.124766203075049
47.2017321027815 -0.0196547207891393
47.2222382407635 0.0547245863125143
47.2427443787456 0.0874874577133433
47.2632505167276 -0.0151161065866523
47.2837566547096 -0.148919439920806
47.3042627926916 0.0506607910442158
47.3247689306736 0.0107079196417462
47.3452750686556 0.054138612538452
47.3657812066376 0.024702869734333
47.3862873446196 0.0890673578960561
47.4067934826016 0.0909820770236213
47.4272996205837 0.113780360450362
47.4478057585657 0.0428788748429441
47.4683118965477 0.0241109535347019
47.4888180345297 -0.119606736807698
47.5093241725117 -0.0144769089105043
47.5298303104937 0.111536483285865
47.5503364484757 -0.0853165602185905
47.5708425864577 0.124130627242796
47.5913487244397 0.0107113790033581
47.6118548624218 0.0640090283964287
47.6323610004038 0.159023575422008
47.6528671383858 0.0561716867467627
47.6733732763678 -0.067463304295974
47.6938794143498 0.0693686022937982
47.7143855523318 -0.0437492601505879
47.7348916903138 0.0827664417042014
47.7553978282958 0.136415707858166
47.7759039662778 -0.0807181283553605
47.7964101042598 0.0251149330636216
47.8169162422419 -0.0773351078848877
47.8374223802239 0.111931748799112
47.8579285182059 -0.0320844968843802
47.8784346561879 -0.0302171782686967
47.8989407941699 0.107117037979495
47.9194469321519 -0.0471651814731372
47.9399530701339 0.0694361633734056
47.9604592081159 0.0194210725191237
47.9809653460979 0.115289545964017
48.00147148408 0.148708250374753
48.021977622062 0.161343852417997
48.042483760044 -0.00305364790625029
48.062989898026 -0.0944842505979888
48.083496036008 0.0328853776761148
48.10400217399 -0.0271947630839398
48.124508311972 0.0586086604551812
48.145014449954 0.0507123149601442
48.165520587936 -0.0613004662357177
48.1860267259181 -0.0690963497990708
48.2065328639001 0.0317769069518568
48.2270390018821 0.080617061335293
48.2475451398641 -0.0163258866487621
48.2680512778461 0.209698062999691
48.2885574158281 0.0920222436139869
48.3090635538101 0.0681466551941247
48.3295696917921 0.0547379644067708
48.3500758297741 -0.000287162081407555
48.3705819677562 0.0176546090629227
48.3910881057382 0.0148132778397616
48.4115942437202 0.0745221775824426
48.4321003817022 0.113447974957632
48.4526065196842 0.0690906699653306
48.4731126576662 -0.0377164040611291
48.4936187956482 -0.0298899137884134
48.5141249336302 0.00923680745014432
48.5346310716122 0.048413759654544
48.5551372095943 0.0251409428247856
48.5756433475763 -0.00849830970579724
48.5961494855583 -0.0420873312705382
48.6166556235403 -0.0131261218694372
48.6371617615223 0.0471353184975059
48.6576678995043 0.128280323163624
48.6781740374863 -0.0405244412044152
48.6986801754683 0.0928043587267205
48.7191863134503 0.132433389623698
48.7396924514323 0.0991959848198514
48.7601985894144 -0.0381578556848201
48.7807047273964 0.0328718681096837
48.8012108653784 0.0414518228700296
48.8217170033604 0.102165341929551
48.8422231413424 0.204595758621581
48.8627292793244 0.0883264062794523
48.8832354173064 0.138773951569833
48.9037415552884 0.262188394492722
48.9242476932704 0.166903068381453
48.9447538312525 0.0925013065693598
48.9652599692345 0.0910664423897751
48.9857661072165 0.0271818091760323
49.0062722451985 0.223764073594798
49.0267783831805 0.014146568979406
49.0472845211625 0.137912628663189
49.0677906591445 0.167978919312815
49.0882967971265 -0.0623212257383847
49.1088029351085 0.0928455268429246
49.1293090730906 -0.0436041562765908
49.1498152110726 0.163746391569736
49.1703213490546 -0.00385282961809552
49.1908274870366 0.141098180159915
49.2113336250186 0.129849420903768
49.2318397630006 0.170734225946796
49.2523459009826 0.159585928622332
49.2728520389646 0.179737862263711
49.2933581769466 0.0749400268709319
49.3138643149287 0.0431090891106614
49.3343704529107 0.0738283823162328
49.3548765908927 0.000431239820979368
49.3753827288747 0.0937509949582348
49.3958888668567 0.187120981061332
49.4163950048387 0.176374531463605
49.4369011428207 0.25942831283172
49.4574072808027 -0.13663434150099
49.4779134187847 0.238186568465475
49.4984195567667 0.0401410427311163
49.5189256947488 0.217145747962599
49.5394318327308 0.321284017493257
49.5599379707128 0.0713058513230908
49.5804441086948 0.0192945827854328
49.6009502466768 0.092333545213617
49.6214563846588 -0.0533272613923568
49.6419625226408 0.0093954963008448
49.6624686606228 0.270085151626555
49.6829747986048 0.0829083712514406
49.7034809365869 -5.15114911653347E-05
49.7239870745689 0.198288836732071
49.7444932125509 0.0737627492544827
49.7649993505329 -0.0402964405905971
49.7855054885149 0.0123612671968318
49.8060116264969 0.137985872616769
49.8265177644789 -0.0384226243307844
49.8470239024609 0.0560524430208373
49.8675300404429 0.0464110746716343
49.888036178425 0.120153270621607
49.908542316407 0.131445697537421
49.929048454389 0.121955022085744
49.949554592371 -0.0541520890667577
49.970060730353 0.00937436407991588
49.990566868335 -0.114548951807568
50.011073006317 0.126161296604123
50.031579144299 0.00233844264832239
50.052085282281 -0.00685084700830252
50.0725914202631 0.140260094300914
50.0930975582451 0.089504599909307
50.1136036962271 0.00754933648354139
50.1341098342091 0.0818943040236177
50.1546159721911 -0.020793830803797
50.1751221101731 0.116151598667963
50.1956282481551 0.107313925772233
50.2161343861371 0.181859817175677
50.2366405241191 -0.0768773937883699
50.2571466621012 -0.00223104045324141
50.2776528000832 0.0203822105143958
50.2981589380652 -0.113204307552125
50.3186650760472 0.0449260720138628
50.3391712140292 -0.0156433174543074
50.3596773520112 0.0696708573766979
50.3801834899932 -0.105381403493122
50.4006896279752 0.0216998999362343
50.4211957659572 0.0446647676647655
50.4417019039392 0.161429866359139
50.4622080419213 -0.034254803980646
50.4827141799033 0.0721940899787445
50.5032203178853 0.178693214903977
50.5237264558673 0.139409237461719
50.5442325938493 0.0689254909853018
50.5647387318313 0.0505753088080604
50.5852448698133 -0.0198079757366723
50.6057510077953 0.11819230401777
50.6262571457773 0.0166594814047217
50.6467632837594 0.071426889757515
50.6672694217414 0.147077862409484
50.6877755597234 0.0977790660272944
50.7082816977054 0.079780500610947
50.7287878356874 -0.0319178338395582
50.7492939736694 -0.0706492706575548
50.7698001116514 -0.102718745780162
50.7903062496334 0.0840120100630727
50.8108123876154 0.20829299687215
50.8313185255975 0.145124214647068
50.8518246635795 0.165338996721162
50.8723308015615 0.0293540097610987
50.8928369395435 -0.0753307462331231
50.9133430775255 0.132534728738497
50.9338492155075 0.215450434675959
50.9543553534895 0.00674970491259685
50.9748614914715 0.0689325394484097
50.9953676294535 -0.0563343950499354
51.0158737674356 -0.0253010985824385
51.0363799054176 0.0682824288509004
51.0568860433996 0.016082853916748
51.0773921813816 -0.119399823384896
51.0978983193636 0.0889177302793026
51.1184044573456 0.0785355149093427
51.1389105953276 0.120286863838558
51.1594167333096 -0.0566615562663839
51.1799228712916 0.120606921261182
51.2004290092736 0.120842296421257
51.2209351472557 0.0273779025471744
51.2414412852377 0.0902137396389334
51.2619474232197 -0.0135668589701323
51.2824535612017 0.153536106719978
51.3029596991837 -0.00222736329073747
51.3234658371657 0.0608093976643895
51.3439719751477 0.123896389585359
51.3644781131297 -0.0942163875278304
51.3849842511117 0.052304399658156
51.4054903890938 0.125958751143318
51.4259965270758 0.0954966669276549
51.4465026650578 0.0755014803445007
51.4670088030398 0.138889858060522
51.4875149410218 -0.0685048665909484
51.5080210790038 -0.0883493602765766
51.5285272169858 0.0776714690373247
51.5490333549678 0.0458258626504013
51.5695394929498 0.0348638205626534
51.5900456309319 0.0447853427740806
51.6105517689139 0.0443404292846834
51.6310579068959 0.0543624134277947
51.6515640448779 -0.0501487047965853
51.6720701828599 0.189140407944877
51.6925763208419 0.0951464183188475
51.7130824588239 0.167869326325327
51.7335885968059 -0.0510242013690184
51.7540947347879 0.0113825019024784
51.77460087277 0.0113394361398171
51.795107010752 0.0634299346763313
51.815613148734 0.125987330845354
51.836119286716 -0.0822383753531145
51.856625424698 0.0741694827475923
51.87713156268 0.0847942384808077
51.897637700662 0.0746358918465319
51.918143838644 0.220777776178098
51.938649976626 0.0336365581421729
51.959156114608 0.0965455710720897
51.9796622525901 -0.00716185169881811
52.0001683905721 0.160014289829449
52.0206745285541 0.170990662323559
52.0411806665361 -0.0888160675498229
52.0616868045181 0.0785107668759707
52.0821929425001 0.068804498934273
52.1026990804821 -0.0450182047082495
52.1232052184641 0.0182926559484035
52.1437113564461 0.0712370809042318
52.1642174944282 -0.0424349298407647
52.1847236324102 -0.0935567096199191
52.2052297703922 0.0514306834788265
52.2257359083742 0.0506349742100808
52.2462420463562 0.049889495907177
52.2667481843382 0.0179442485701152
52.2872543223202 0.0693825655322289
52.3077604603022 -0.0145455532064822
52.3282665982842 0.0890765590206488
52.3487727362663 -0.0260010977863782
52.3692788742483 0.108971476372437
52.3897850122303 0.0981609481637605
52.4102911502123 0.0144839842542595
52.4307972881943 0.0246072513106004
52.4513034261763 -0.0798025840005498
52.4718095641583 0.0762544783208086
52.4923157021403 0.0761117716080089
52.5128218401223 0.00310262919438464
52.5333279781044 -0.0490229489200643
52.5538341160864 -0.0385982960686713
52.5743402540684 0.0239599210818972
52.5948463920504 0.107401702531641
52.6153525300324 0.159643714947227
52.6358586680144 -0.110980708338012
52.6563648059964 0.0246950993425908
52.6768709439784 -0.0166621953442972
52.6973770819604 0.0253640742679898
52.7178832199425 0.0570239081794522
52.7383893579245 -0.150849360276577
52.7588954959065 -0.0473342053499638
52.7794016338885 0.0770645138758242
52.7999077718705 -0.0693198692658791
52.8204139098525 0.0030959785582596
52.8409200478345 0.0651453906815737
52.8614261858165 -0.0602549662292702
52.8819323237985 -0.0501884255076055
52.9024384617805 0.0432616795132346
52.9229445997626 0.00134534883324999
52.9434507377446 0.0219792491191074
52.9639568757266 -0.0406699529625265
52.9844630137086 -0.0303522574116517
53.0049691516906 0.0737656691050651
53.0254752896726 0.0841838265876239
53.0459814276546 0.000902215036024723
53.0664875656366 -0.103162498883066
53.0869937036186 0.0115730181636857
53.1074998416007 -0.0507245671570541
53.1280059795827 -0.0608885881786186
53.1485121175647 0.0435809550989923
53.1690182555467 -0.0706492706575548
53.1895243935287 -0.051324962028258
53.2100305315107 0.0722162442335474
53.2305366694927 0.0916410147945284
53.2510428074747 0.00694934965468452
53.2715489454567 -0.140192084519317
53.2920550834388 0.0460500456058561
53.3125612214208 0.0552590733635384
53.3330673594028 0.085351665420396
53.3535734973848 0.0842444884430955
53.3740796353668 0.10402087576497
53.3945857733488 0.0196808273860207
53.4150919113308 0.0291410099729129
53.4355980493128 -0.117598576474353
53.4561041872948 0.0169620680442235
53.4766103252769 -0.0567603898046917
53.4971164632589 -0.026265950021098
53.5176226012409 0.0771953873950044
53.5381287392229 0.014040289110282
53.5586348772049 -0.0594812448752651
53.5791410151869 0.106630785438363
53.5996471531689 0.0644597133845003
53.6201532911509 -0.0505777943701873
53.6406594291329 -0.0301484044923663
53.6611655671149 -0.0721687836487033
53.681671705097 -0.0515242641046615
53.702177843079 0.0212538197385554
53.722683981061 0.0836654678809479
53.743190119043 0.0940440136558489
53.763696257025 -0.0101105429367413
53.784202395007 -0.0621315352301562
53.804708532989 0.146314370108938
53.825214670971 0.0423105064138734
53.845720808953 0.000856873684651038
53.8662269469351 0.0427868052546043
53.8867330849171 -0.0402330322096006
53.9072392228991 0.0226306946253698
53.9277453608811 0.189711319092849
53.9482514988631 0.0964255078595034
53.9687576368451 0.107356594258667
53.9892637748271 0.139171244957005
54.0097699128091 0.0460361266211857
54.0302760507911 -0.0782987607487918
54.0507821887732 0.193249916180406
54.0712883267552 0.183598824075446
54.0917944647372 -0.0655853703970054
54.1123006027192 0.112363999429719
54.1328067407012 0.134113600222284
54.1533128786832 -0.0836699013526409
54.1738190166652 0.136096828038276
54.1943251546472 0.00174712172836755
54.2148312926292 0.0966143130509682
54.2353374306113 0.191531735339411
54.2558435685933 0.0260827219270289
54.2763497065753 0.100267272813822
54.2968558445573 0.122418721333124
54.3173619825393 0.00920373415160147
54.3378681205213 0.104372311269254
54.3583742585033 -0.0816588806472511
54.3788803964853 -0.0072231749312478
54.3993865344673 0.213096095083931
54.4198926724494 0.131382262731618
54.4403988104314 0.0913853280118143
54.4609049484134 0.134771957591186
54.4814110863954 0.105292151469732
54.5019172243774 0.0550292429807879
54.5224233623594 0.0673165654576853
54.5429295003414 0.0379874522337581
54.5634356383234 0.23787523664234
54.5839417763054 0.146146585350096
54.6044479142874 0.0336348316903619
54.6249540522695 0.119089975663136
54.6454601902515 0.079595350601752
54.6659663282335 -0.00151571016045637
54.6864724662155 0.0111734600431771
54.7069786041975 0.00307952787931931
54.7274847421795 0.0783691600146368
54.7479908801615 0.0391256897824631
54.7684970181435 0.041599117182798
54.7890031561255 -0.112127224451025
54.8095092941076 0.161279998214327
54.8300154320896 0.132654118512188
54.8505215700716 0.104078469775891
54.8710277080536 0.0338863853387691
54.8915338460356 -0.0675054681325106
54.9120399840176 -0.0256080507118349
54.9325461219996 0.0580062643413496
54.9530522599816 -0.014579189639624
54.9735583979636 0.0274689206785778
54.9940645359457 -0.00334940470404521
55.0145706739277 0.122132500879174
55.0350768119097 -0.064835362571765
55.0555829498917 0.0190803382764714
55.0760890878737 0.0926296034238834
55.0965952258557 0.166229099537137
55.1171013638377 0.0836288266162329
55.1376075018197 0.0948287846611709
55.1581136398017 0.168578973671951
55.1786197777838 -0.0180372730180942
55.1991259157658 0.0245633779243696
55.2196320537478 -0.099452406833991
55.2401381917298 0.203665372706823
55.2606443297118 0.0589167165468134
55.2811504676938 0.143384958019312
55.3016566056758 0.0924867637909858
55.3221627436578 0.0416388005285018
55.3426688816398 0.126257734898526
55.3631750196218 0.12759356690106
55.3836811576039 0.0560629632027683
55.4041872955859 -0.0675007428630144
55.4246934335679 -0.0462683906593101
55.4451995715499 0.0375141925102363
55.4657057095319 0.0171803399789581
55.4862118475139 0.0177300517468551
55.5067179854959 0.0287466611472609
55.5272241234779 -0.033103165153158
55.5477302614599 -0.0115694271544016
55.568236399442 -0.000402124856469788
55.588742537424 0.0524820750739707
55.609248675406 -0.0195834940297469
55.629754813388 -0.0186821655009557
55.65026095137 -0.0906472726729892
55.670767089352 0.0457711844541526
55.691273227334 0.0364065392138031
55.711779365316 0.120842124939296
55.732285503298 0.153244608297297
55.7527916412801 -0.0226360107121933
55.7732977792621 0.00986693457749183
55.7938039172441 -0.0200798891669809
55.8143100552261 0.0958568513877217
55.8348161932081 0.066010489574933
55.8553223311901 0.00496435872798617
55.8758284691721 0.0377184588468814
55.8963346071541 0.0809394565982854
55.9168407451361 0.0200440186488646
55.9373468831182 -0.0824678550013808
55.9578530211002 0.0338205023142159
55.9783591590822 0.0147424239289878
55.9988652970642 -0.0147020901570649
56.0193714350462 0.0913202933893912
56.0398775730282 0.166142907901689
56.0603837110102 -0.0402342466201708
56.0808898489922 0.0346888298238112
56.1013959869742 0.140912137233635
56.1219021249563 -0.00281432439069873
56.1424082629383 -0.000657221715857359
56.1629144009203 0.0744667785914927
56.1834205389023 0.0454743431980182
56.2039266768843 0.131115472103719
56.2244328148663 0.112640165308595
56.2449389528483 0.125465089479313
56.2654450908303 0.0758402446158731
56.2859512288123 -0.0674843692817248
56.3064573667943 -0.0690998050898574
56.3269635047764 0.106418323401185
56.3474696427584 0.0944866828580699
56.3679757807404 0.10343860661413
56.3884819187224 0.081190761336032
56.4089880567044 0.0485764803571094
56.4294941946864 0.109762430344029
56.4500003326684 0.0668319446301235
56.4705064706504 0.0239516898820602
56.4910126086324 0.043621666099839
56.5115187466145 0.115425206616793
56.5320248845965 0.0726956447662558
56.5525310225785 0.123766313881561
56.5730371605605 0.133220547296041
56.5935432985425 -0.0760249883236371
56.6140494365245 0.0272797070225269
56.6345555745065 -0.0881153666654669
56.6550617124885 0.0361231239457147
56.6755678504705 -0.0479214878105952
56.6960739884526 0.0347507980656036
56.7165801264346 -0.0387766850923555
56.7370862644166 0.0335793960488607
56.7575924023986 0.178902374822586
56.7780985403806 0.00135891789548576
56.7986046783626 0.042615691934228
56.8191108163446 0.167256030272146
56.8396169543266 0.0836132662425718
56.8601230923086 0.09377073317884
56.8806292302907 0.0623117644142837
56.9011353682727 -0.125346973384431
56.9216415062547 0.0620445197826968
56.9421476442367 -0.0838470894176668
56.9626537822187 0.114061532347811
56.9831599202007 -0.0525629482542016
57.0036660581827 -0.135803864557039
57.0241721961647 0.0830887834392984
57.0446783341467 -0.0417183375985219
57.0651844721287 0.0106081056628331
57.0856906101108 0.15673477989003
57.1061967480928 -0.00958831491693091
57.1267028860748 0.0220554879086168
57.1472090240568 0.0120828550333399
57.1677151620388 0.0438271197905716
57.1882213000208 0.190204948846979
57.2087274380028 -0.0383669911307724
57.2292335759848 0.0351946331906522
57.2497397139668 -0.0161935115220814
57.2702458519489 0.10955190806436
57.2907519899309 0.0582642252833108
57.3112581279129 0.01744344013477
57.3317642658949 0.132922885952071
57.3522704038769 0.113035896068548
57.3727765418589 0.124449137150866
57.3932826798409 0.0525792758656932
57.4137888178229 0.053676312213029
57.4342949558049 0.0860735795262068
57.454801093787 0.0664377444718934
57.475307231769 0.0781021403834219
57.495813369751 0.131483433927459
57.516319507733 -0.117168374895995
57.536825645715 0.0821467139130596
57.557331783697 -0.145571299645377
57.577837921679 -0.0607390822379719
57.598344059661 0.0222175188515464
57.618850197643 0.0531410175735733
57.6393563356251 0.104948080594776
57.6598624736071 0.0838887079151533
57.6803686115891 0.0316295662013729
57.7008747495711 0.0731706554534345
57.7213808875531 0.0210119756713382
57.7418870255351 0.135570193521751
57.7623931635171 -0.0414880243286618
57.7828993014991 0.0210873221201012
57.8034054394811 0.0941295662013729
57.8239115774632 0.0943053745818199
57.8444177154452 -0.0617185860718911
57.8649238534272 -0.00935898242642669
57.8854299914092 -0.0298658144817869
57.9059361293912 -0.0607390822379719
57.9264422673732 0.00900860454362007
57.9469484053552 0.120473188957721
57.9674545433372 0.0653213376709967
57.9879606813192 0.166469717350115
58.0084668193012 0.121834994661741
58.0289729572833 -0.00608283039412327
58.0494790952653 0.0327162421825207
58.0699852332473 0.15489887905834
58.0904913712293 -0.0457849197666652
58.1109975092113 0.0973315123741715
58.1315036471933 0.0738315088141836
58.1520097851753 0.154548402886704
58.1725159231573 -0.0459344720749329
58.1930220611393 -0.0901171160707281
58.2135281991214 0.199083804232652
58.2340343371034 0.0300016221685407
58.2545404750854 -0.0348636622630618
58.2750466130674 -0.00592871572882236
58.2955527510494 0.0959731284379258
58.3160588890314 8.53690384933214E-06
58.3365650270134 0.237427509668948
58.3570711649954 0.0478133800665556
58.3775773029774 0.0978328147633384
58.3980834409595 -0.00834751957403662
58.4185895789415 0.145939043721097
58.4390957169235 0.133609171315406
58.4596018549055 -0.0349204701244434
58.4801079928875 0.109100119401549
58.5006141308695 0.117754273226718
58.5211202688515 0.063958658017728
58.5416264068335 -0.0627033928920865
58.5621325448155 0.0502681204972744
58.5826386827976 0.142456531519144
58.6031448207796 -0.0153048264931442
58.6236509587616 0.139484046460409
58.6441570967436 0.0339064837131383
58.6646632347256 0.0742124852650425
58.6851693727076 0.229152051116122
58.7056755106896 -0.0429414854002895
58.7261816486716 0.0287652090491408
58.7466877866536 0.121355467797747
58.7671939246356 0.151495957512194
58.7877000626177 0.192103344859151
58.8082062005997 0.128594296505282
58.8287123385817 0.179718812450589
58.8492184765637 0.0954768926950718
58.8697246145457 0.0217018705720629
58.8902307525277 0.041727079414896
58.9107368905097 0.197219185890238
58.9312430284917 0.196511523331422
58.9517491664737 0.216687425071781
58.9722553044558 0.132746891111315
58.9927614424378 0.225939921450025
59.0132675804198 0.194183182754577
59.0337737184018 0.13122667502497
59.0542798563838 0.0579037315945395
59.0747859943658 0.140881019129951
59.0952921323478 -0.00525812903546286
59.1157982703298 0.234069620431632
59.1363044083118 0.0151142675312362
59.1568105462939 -0.0475408544033179
59.1773166842759 0.129437587961303
59.1978228222579 0.0460495946250999
59.2183289602399 0.0668784989214052
59.2388350982219 0.0252576341835523
59.2593412362039 -0.026729666255125
59.2798473741859 0.129666597605373
59.3003535121679 -0.0263869075682872
59.3208596501499 0.025943151557228
59.341365788132 -0.0779265583514146
59.361871926114 -0.0150088565763162
59.382378064096 0.0271257428312907
59.402884202078 0.204727239871406
59.42339034006 0.0386289678773641
59.443896478042 -0.0545024064841695
59.464402616024 0.0294997834534722
59.484908754006 -0.0322811289763774
59.505414891988 0.0205715228929483
59.5259210299701 -0.051525594271884
59.5464271679521 0.084760852862459
59.5669333059341 -0.0289024690373558
59.5874394439161 -0.0383488933046621
59.6079455818981 -0.0477450866061264
59.6284517198801 -0.0675077156084152
59.6489578578621 0.00882797599650642
59.6694639958441 0.0122972319006034
59.6899701338261 -0.0362666145627908
59.7104762718081 -0.0118635633936764
59.7309824097902 -0.0290769479253867
59.7514885477722 -0.0254067681579217
59.7719946857542 -0.011269690757948
59.7925008237362 0.0133342842745344
59.8130069617182 -0.118261509727141
59.8335130997002 0.0626929272370253
59.8540192376822 -0.1208857381663
59.8745253756642 0.0601691607295509
59.8950315136462 0.0850242905912432
59.9155376516283 -0.0567370152478889
59.9360437896103 0.0307185765454875
59.9565499275923 0.0661410659713726
59.9770560655743 0.112030453029767
59.9975622035563 0.137136737720669
60.0180683415383 0.0893765867107469
60.0385744795203 0
