178.01276	-5.6124096
178.40215217	-5.6124096
178.79150738	-5.6124096
179.18082563	3.1255904
179.57010691	4.99801897
179.95935119	7.10450112
180.34855848	7.65062612
180.73772876	-2.49169531
181.12686202	4.29585826
181.51595824	2.18937612
181.90501742	3.90576897
182.29403955	-3.58394531
182.68302461	4.52991183
183.07197259	0.08289397
183.46088348	-14.97455246
183.84975727	0.70703683
184.23859394	-5.45637388
184.6273935	-7.09474888
185.01615592	-0.93133817
185.40488119	1.17514397
185.7935693	2.89153683
186.18222025	5.62216183
186.57083401	1.72126897
186.95941058	-5.92448103
187.34794995	-1.55548103
187.7364521	-2.49169531
188.12491703	-17.00301674
188.51334472	7.4945904
188.90173516	13.42394754
189.29008834	2.0333404
189.67840425	-11.22969531
190.06668288	7.4945904
190.45492421	1.87730469
190.84312823	-13.96032031
191.23129494	-7.7969096
191.61942432	1.95532254
192.00751636	8.89891183
192.39557105	-14.42842746
192.78358838	-20.3577846
193.17156833	4.45189397
193.55951089	3.35964397
193.94741606	-5.53439174
194.33528382	4.68594754
194.72311416	10.61530469
195.11090707	14.43817969
195.49866254	5.70017969
195.88638055	-7.01673103
196.2740611	9.05494754
196.66170417	-13.57023103
197.04930975	1.40919754
197.43687784	-5.30033817
197.82440841	-26.3651596
198.21190146	-12.32194531
198.59935698	9.05494754
198.98677495	-14.19437388
199.37415536	12.4097154
199.76149821	-1.55548103
200.14880348	-11.46374888
200.53607116	-1.00935603
200.92330124	4.13982254
201.3104937	-5.92448103
201.69764854	-7.71889174
202.08476574	14.67223326
202.4718453	6.71441183
202.8588872	15.37439397
203.24589142	-10.05942746
203.63285797	8.27476897
204.01978682	22.86410826
204.40667797	20.28951897
204.7935314	-6.62664174
205.1803471	0.3949654
205.56712507	-3.27187388
205.95386529	-6.7046596
206.34056774	4.99801897
206.72723243	-20.43580246
207.11385932	7.96269754
207.50044843	-1.39944531
207.88699972	-1.32142746
208.2735132	1.40919754
208.65998885	6.48035826
209.04642666	-5.45637388
209.43282662	-10.68357031
209.81918871	-12.39996317
210.20551292	10.14719754
210.59179926	-4.13007031
210.97804769	-8.42105246
211.36425821	4.84198326
211.75043081	12.25367969
212.13656549	-1.86755246
212.52266221	11.55151897
212.90872099	1.01910826
213.29474179	-3.50592746
213.68072462	1.40919754
214.06666946	0.78505469
214.4525763	12.09764397
214.83844513	13.65800112
215.22427594	0.78505469
215.61006871	2.81351897
215.99582343	-0.30719531
216.3815401	3.6717154
216.7672187	13.11187612
217.15285922	1.95532254
217.53846164	1.33117969
217.92402597	1.95532254
218.30955218	8.27476897
218.69504027	4.84198326
219.08049021	-17.15905246
219.46590201	-7.40682031
219.85127566	11.23944754
220.23661112	-4.20808817
220.62190841	5.62216183
221.0071675	8.89891183
221.39238839	5.62216183
221.77757106	-0.22917746
222.16271551	-1.39944531
222.54782171	11.62953683
222.93288967	11.55151897
223.31791936	12.72178683
223.70291077	11.39548326
224.08786391	4.92000112
224.47277874	-11.30771317
224.85765527	-2.25764174
225.24249348	-0.77530246
225.62729336	-10.68357031
226.0120549	-8.73312388
226.39677808	1.79928683
226.7814629	5.8562154
227.16610935	9.75710826
227.55071741	-7.40682031
227.93528706	5.54414397
228.31981831	-5.30033817
228.70431114	8.27476897
229.08876553	12.25367969
229.47318148	-0.1511596
229.85755897	-15.75473103
230.241898	16.62267969
230.62619855	7.4945904
231.01046061	2.73550112
231.39468416	0.70703683
231.77886921	4.45189397
232.16301573	10.2252154
232.54712372	9.91314397
232.93119315	3.59369754
233.31522403	-0.38521317
233.69921635	-8.18699888
234.08317008	-2.64773103
234.46708521	-4.28610603
234.85096175	9.28900112
235.23479967	-8.42105246
235.61859896	3.51567969
236.00235962	-4.05205246
236.38608162	-5.30033817
236.76976497	19.58735826
237.15340964	-5.53439174
237.53701563	2.81351897
237.92058293	0.47298326
238.30411152	-21.05994531
238.68760139	4.2178404
239.07105253	16.70069754
239.45446493	0.55100112
239.83783858	19.82141183
240.22117347	6.79242969
240.60446959	5.62216183
240.98772691	4.99801897
241.37094545	-11.93185603
241.75412517	-10.91762388
242.13726607	-8.73312388
242.52036814	4.99801897
242.90343137	4.06180469
243.28645574	9.36701897
243.66944125	0.47298326
244.05238789	15.92051897
244.43529563	-3.34989174
244.81816447	4.37387612
245.20099441	18.10501897
245.58378542	23.95635826
245.96653749	10.92737612
246.34925063	8.35278683
246.7319248	-0.38521317
247.11456001	-5.76844531
247.49715624	-16.69094531
247.87971348	10.69332254
248.26223171	9.83512612
248.64471093	9.1329654
249.02715113	11.47350112
249.40955229	-17.15905246
249.7919144	1.72126897
250.17423746	-19.18751674
250.55652144	-8.26501674
250.93876635	10.38125112
251.32097215	9.83512612
251.70313886	0.78505469
252.08526645	2.96955469
252.46735491	4.84198326
252.84940423	5.38810826
253.23141441	1.72126897
253.61338542	-10.76158817
253.99531726	13.57998326
254.37720991	5.46612612
254.75906337	0.3949654
255.14087762	10.61530469
255.52265265	-0.61926674
255.90438846	-2.72574888
256.28608502	-8.73312388
256.66774233	-4.20808817
257.04936038	10.38125112
257.43093915	5.46612612
257.81247863	-14.66248103
258.19397882	5.8562154
258.57543969	21.1477154
258.95686125	6.55837612
259.33824347	8.50882254
259.71958635	5.93423326
260.10088988	-4.36412388
260.48215404	-3.81799888
260.86337882	5.46612612
261.24456421	-1.94557031
261.6257102	-4.36412388
262.00681678	-6.39258817
262.38788394	-16.45689174
262.76891166	12.33169754
263.14989994	0.86307254
263.53084876	14.98430469
263.9117581	-3.27187388
264.29262797	-8.26501674
264.67345835	-5.6124096
265.05424923	4.2178404
265.43500059	-0.93133817
265.81571242	4.37387612
266.19638472	-2.64773103
266.57701747	4.84198326
266.95761066	3.04757254
267.33816428	-1.55548103
267.71867831	1.72126897
268.09915275	-17.54914174
268.47958759	-0.46323103
268.85998281	-10.44951674
269.2403384	7.33855469
269.62065435	13.81403683
270.00093065	6.79242969
270.38116729	-3.58394531
270.76136426	-1.39944531
271.14152154	11.70755469
271.52163912	-4.75421317
271.90171699	11.00539397
272.28175515	-0.30719531
272.66175357	6.9484654
273.04171226	-9.35726674
273.42163119	16.38862612
273.80151035	-1.2434096
274.18134974	16.07655469
274.56114934	-9.66933817
274.94090915	0.62901897
275.32062914	11.78557254
275.70030931	7.4945904
276.07994965	19.04123326
276.45955014	-0.93133817
276.83911078	6.71441183
277.21863155	-0.46323103
277.59811244	-9.27924888
277.97755344	-10.99564174
278.35695454	-12.24392746
278.73631573	-8.42105246
279.11563699	12.56575112
279.49491832	10.2252154
279.8741597	6.79242969
280.25336112	3.04757254
280.63252257	-3.89601674
281.01164404	-7.01673103
281.39072552	0.08289397
281.769767	-17.31508817
282.14876846	6.48035826
282.52772989	-8.10898103
282.90665129	-15.4426596
283.28553263	6.71441183
283.66437392	-12.08789174
284.04317513	-17.00301674
284.42193626	-12.94608817
284.8006573	-3.50592746
285.17933823	2.18937612
285.55797904	-7.64087388
285.93657972	3.82775112
286.31514026	0.70703683
286.69366065	0.86307254
287.07214088	0.70703683
287.45058093	6.71441183
287.82898079	1.72126897
288.20734046	3.04757254
288.58565992	-8.8891596
288.96393916	-4.59817746
289.34217817	-16.14482031
289.72037693	-1.55548103
290.09853545	3.28162612
290.47665369	-9.4352846
290.85473166	-12.08789174
291.23276934	0.78505469
291.61076672	-6.47060603
291.98872379	-4.13007031
292.36664053	8.11873326
292.74451695	0.78505469
293.12235301	0.00487612
293.50014872	12.17566183
293.87790406	-9.04519531
294.25561903	2.18937612
294.6332936	-18.32932031
295.01092777	-15.52067746
295.38852152	19.19726897
295.76607485	13.18989397
296.14358775	2.89153683
296.5210602	1.87730469
296.89849218	0.78505469
297.2758837	-9.59132031
297.65323473	-7.64087388
298.03054528	-3.73998103
298.40781531	-4.91024888
298.78504483	-9.66933817
299.16223383	-6.47060603
299.53938228	11.8635904
299.91649019	-6.54862388
300.29355753	12.17566183
300.6705843	12.9558404
301.04757048	1.64325112
301.42451607	7.72864397
301.80142105	4.52991183
302.17828542	-7.64087388
302.55510915	-19.18751674
302.93189224	-11.46374888
303.30863468	8.0407154
303.68533646	-0.77530246
304.06199756	-1.08737388
304.43861797	2.81351897
304.81519769	2.96955469
305.19173669	11.47350112
305.56823497	14.82826897
305.94469253	0.16091183
306.32110933	-2.80376674
306.69748539	-6.7046596
307.07382067	4.84198326
307.45011518	4.60792969
307.8263689	-3.03782031
308.20258182	-24.49273103
308.57875393	11.94160826
308.95488521	18.4170904
309.33097566	-0.07314174
309.70702526	-6.78267746
310.083034	-1.71151674
310.45900188	15.37439397
310.83492887	-3.50592746
311.21081498	6.16828683
311.58666018	18.80717969
311.96246446	-9.51330246
312.33822782	4.45189397
312.71395024	6.63639397
313.08963172	2.18937612
313.46527223	3.6717154
313.84087177	9.6790904
314.21643033	14.82826897
314.5919479	5.38810826
314.96742446	-5.45637388
315.34286	17.94898326
315.71825451	1.4872154
316.09360799	-9.74735603
316.46892041	3.90576897
316.84419177	15.29637612
317.21942206	-17.0810346
317.59461126	-6.62664174
317.96975936	-11.85383817
318.34486636	8.27476897
318.71993224	4.37387612
319.09495698	0.78505469
319.46994059	-7.40682031
319.84488304	5.93423326
320.21978432	-5.22232031
320.59464443	2.65748326
320.96946335	2.50144754
321.34424108	-16.37887388
321.71897759	4.84198326
322.09367288	2.26739397
322.46832693	14.51619754
322.84293975	0.00487612
323.2175113	-5.76844531
323.59204159	15.29637612
323.9665306	-13.10212388
324.34097832	-4.91024888
324.71538474	-0.77530246
325.08974984	-11.46374888
325.46407362	-0.46323103
325.83835607	-8.96717746
326.21259717	-0.1511596
326.5867969	1.01910826
326.96095527	6.48035826
327.33507226	-6.54862388
327.70914786	4.13982254
328.08318205	-17.47112388
328.45717483	3.98378683
328.83112617	0.86307254
329.20503609	0.62901897
329.57890455	7.72864397
329.95273155	8.11873326
330.32651708	9.1329654
330.70026112	-0.77530246
331.07396367	-4.83223103
331.44762471	9.60107254
331.82124424	-5.30033817
332.19482223	9.6790904
332.56835869	-2.25764174
332.94185359	6.09026897
333.31530693	-18.1732846
333.6887187	10.38125112
334.06208887	-17.54914174
334.43541746	-17.70517746
334.80870443	-5.0662846
335.18194978	-16.69094531
335.5551535	-11.0736596
335.92831558	-7.48483817
336.301436	-15.36464174
336.67451476	1.64325112
337.04755184	15.45241183
337.42054723	14.0480904
337.79350092	12.17566183
338.1664129	6.16828683
338.53928315	1.17514397
338.91211168	-8.65510603
339.28489845	-2.80376674
339.65764347	-6.54862388
340.03034672	0.9410904
340.4030082	7.02648326
340.77562788	1.87730469
341.14820576	1.72126897
341.52074182	1.95532254
341.89323606	0.31694754
342.26568846	-3.19385603
342.63809902	0.9410904
343.01046771	-12.32194531
343.38279454	7.26053683
343.75507948	-17.39310603
344.12732253	-5.53439174
344.49952367	-2.56971317
344.8716829	-6.31457031
345.2438002	5.3100904
345.61587556	0.23892969
345.98790897	-29.25182031
346.35990042	-0.22917746
346.7318499	0.3949654
347.10375739	-1.7895346
347.47562288	0.23892969
347.84744637	1.01910826
348.21922784	1.33117969
348.59096728	-21.37201674
348.96266467	13.73601897
349.33432002	-12.1659096
349.7059333	-6.00249888
350.0775045	-2.02358817
350.44903362	-3.50592746
350.82052064	2.42342969
351.19196555	1.25316183
351.56336833	-0.93133817
351.93472899	6.48035826
352.3060475	6.01225112
352.67732386	-1.08737388
353.04855805	-20.43580246
353.41975006	0.86307254
353.79089988	1.25316183
354.1620075	-3.58394531
354.53307291	-9.4352846
354.90409609	9.21098326
355.27507704	0.47298326
355.64601574	5.3100904
356.01691219	1.87730469
356.38776636	-15.13058817
356.75857826	-8.65510603
357.12934786	10.53728683
357.50007516	11.78557254
357.87076015	-1.63349888
358.24140281	10.14719754
358.61200313	-1.63349888
358.9825611	-12.79005246
359.35307672	-10.13744531
359.72354996	-0.07314174
360.09398081	-1.2434096
360.46436928	13.18989397
360.83471534	-2.49169531
361.20501898	14.12610826
361.57528019	-5.30033817
361.94549896	-10.76158817
362.31567528	6.87044754
362.68580914	-2.64773103
363.05590052	-0.1511596
363.42594942	-12.63401674
363.79595582	0.08289397
364.16591971	5.15405469
364.53584109	-0.61926674
364.90571993	10.84935826
365.27555623	1.64325112
365.64534998	-6.31457031
366.01510116	4.68594754
366.38480976	-8.18699888
366.75447578	9.21098326
367.1240992	0.08289397
367.49368	5.62216183
367.86321819	0.47298326
368.23271374	-17.93923103
368.60216664	2.73550112
368.97157689	0.08289397
369.34094448	18.80717969
369.71026938	-17.39310603
370.07955159	1.87730469
370.4487911	6.01225112
370.8179879	-3.73998103
371.18714198	3.90576897
371.55625331	6.09026897
371.9253219	-8.3430346
372.29434773	-0.77530246
372.6633308	5.77819754
373.03227108	10.92737612
373.40116856	16.93475112
373.77002324	12.25367969
374.13883511	1.4872154
374.50760415	-7.95294531
374.87633035	3.51567969
375.24501371	17.71492969
375.6136542	5.8562154
375.98225181	-2.95980246
376.35080655	-3.66196317
376.71931839	-9.74735603
377.08778732	12.25367969
377.45621333	9.60107254
377.82459642	13.73601897
378.19293656	-9.59132031
378.56123376	3.59369754
378.92948798	12.72178683
379.29769924	0.62901897
379.6658675	10.38125112
380.03399277	5.07603683
380.40207503	13.89205469
380.77011427	9.83512612
381.13811048	10.53728683
381.50606364	-2.25764174
381.87397375	13.5019654
382.2418408	9.75710826
382.60966476	0.08289397
382.97744564	-4.05205246
383.34518342	-14.97455246
383.71287808	-12.7120346
384.08052962	-12.55599888
384.44813803	-4.20808817
384.81570329	-13.2581596
385.1832254	-3.9740346
385.55070434	-5.76844531
385.91814009	10.38125112
386.28553266	-9.82537388
386.65288202	-3.34989174
387.02018817	-3.34989174
387.38745109	-5.37835603
387.75467078	-7.56285603
388.12184722	-1.55548103
388.4889804	5.62216183
388.8560703	13.5019654
389.22311693	8.74287612
389.59012026	16.93475112
389.95708029	-17.0810346
390.323997	-17.78319531
390.69087038	-5.92448103
391.05770042	-0.85332031
391.42448711	-2.41367746
391.79123044	11.8635904
392.1579304	-5.37835603
392.52458697	-0.30719531
392.89120015	9.1329654
393.25776992	0.16091183
393.62429627	17.01276897
393.99077918	2.42342969
394.35721866	1.01910826
394.72361468	-8.65510603
395.08996724	22.16194754
395.45627633	7.72864397
395.82254192	-5.14430246
396.18876402	-12.55599888
396.55494261	-2.72574888
396.92107768	-11.0736596
397.28716921	-0.77530246
397.6532172	-5.69042746
398.01922163	4.99801897
398.3851825	14.20412612
398.75109979	1.4872154
399.11697349	-5.30033817
399.48280358	1.64325112
399.84859007	15.60844754
400.21433293	8.5868404
400.58003216	17.24682254
400.94568774	20.99167969
401.31129966	6.48035826
401.67686791	12.01962612
402.04239248	-5.30033817
402.40787336	1.95532254
402.77331053	-15.52067746
403.13870399	-12.55599888
403.50405373	15.45241183
403.86935973	3.04757254
404.23462197	11.94160826
404.59984046	-5.45637388
404.96501518	-10.13744531
405.33014611	-3.66196317
405.69523324	-9.66933817
406.06027658	-13.88230246
406.42527609	3.74973326
406.79023177	2.96955469
407.15514362	-0.61926674
407.52001161	-5.37835603
407.88483574	-6.78267746
408.249616	-0.77530246
408.61435237	2.34541183
408.97904484	-8.49907031
409.34369341	-18.1732846
409.70829805	-19.10949888
410.07285877	5.23207254
410.43737554	2.18937612
410.80184835	5.23207254
411.16627721	0.08289397
411.53066208	-2.10160603
411.89500297	7.02648326
412.25929986	0.62901897
412.62355273	-1.86755246
412.98776159	-11.46374888
413.35192641	-2.64773103
413.71604718	-12.32194531
414.0801239	10.92737612
414.44415655	-1.63349888
414.80814512	-10.60555246
415.17208961	-4.98826674
415.53598999	3.35964397
415.89984625	15.6864654
416.26365839	5.46612612
416.6274264	0.23892969
416.99115026	-17.93923103
417.35482995	3.82775112
417.71846548	-17.86121317
418.08205683	-2.64773103
418.44560398	12.72178683
418.80910693	-5.76844531
419.17256567	6.24630469
419.53598017	6.79242969
419.89935044	-10.5275346
420.26267646	-6.62664174
420.62595821	2.11135826
420.9891957	11.16142969
421.3523889	-0.30719531
421.7155378	-5.6124096
422.0786424	-4.59817746
422.44170268	-13.64824888
422.80471862	1.56523326
423.16769023	-7.64087388
423.53061749	-0.1511596
423.89350038	-16.30085603
424.2563389	8.43080469
424.61913303	12.9558404
424.98188276	19.27528683
425.34458808	-7.71889174
425.70724898	3.90576897
426.06986545	22.63005469
426.43243748	2.96955469
426.79496505	2.5794654
427.15744816	1.56523326
427.51988678	-4.83223103
427.88228092	-5.37835603
428.24463056	0.70703683
428.60693569	7.65062612
428.96919629	19.5093404
429.33141236	-15.36464174
429.69358388	6.16828683
430.05571085	13.26791183
430.41779324	-3.50592746
430.77983106	10.45926897
431.14182429	-7.87492746
431.50377291	2.5794654
431.86567692	-0.85332031
432.2275363	-0.77530246
432.58935104	-0.93133817
432.95112114	6.55837612
433.31284658	8.19675112
433.67452734	-4.20808817
434.03616343	10.69332254
434.39775481	-0.6972846
434.7593015	-3.50592746
435.12080347	-6.54862388
435.48226071	-8.57708817
435.84367321	14.51619754
436.20504095	-20.66985603
436.56636394	-0.93133817
436.92764215	20.36753683
437.28887558	26.68698326
437.65006421	16.62267969
438.01120804	-4.98826674
438.37230704	5.93423326
438.73336122	8.97692969
439.09437055	19.43132254
439.45533503	12.9558404
439.81625464	22.55203683
440.17712938	15.84250112
440.53795923	13.81403683
440.89874418	-2.72574888
441.25948422	3.6717154
441.62017934	10.30323326
441.98082953	-0.22917746
442.34143477	9.52305469
442.70199506	-7.87492746
443.06251038	25.5167154
443.42298072	14.5942154
443.78340607	8.19675112
444.14378642	3.04757254
444.50412176	17.01276897
444.86441207	10.38125112
445.22465735	10.06917969
445.58485758	17.71492969
445.94501275	11.78557254
446.30512286	8.5868404
446.66518788	4.2178404
447.02520781	11.3174654
447.38518264	14.51619754
447.74511235	7.02648326
448.10499693	7.80666183
448.46483638	0.23892969
448.82463067	23.8783404
449.18437981	10.45926897
449.54408377	-11.15167746
449.90374256	8.5868404
450.26335614	-0.54124888
450.62292452	0.86307254
450.98244768	10.30323326
451.34192562	18.02700112
451.70135831	15.29637612
452.06074575	12.17566183
452.42008793	10.2252154
452.77938483	11.70755469
453.13863645	12.48773326
453.49784277	4.60792969
453.85700378	-2.80376674
454.21611948	8.97692969
454.57518984	18.9632154
454.93421485	-1.55548103
455.29319452	6.09026897
455.65212881	19.35330469
456.01101773	4.45189397
456.36986127	17.40285826
456.7286594	1.56523326
457.08741212	6.71441183
457.44611942	17.01276897
457.80478129	5.15405469
458.16339771	11.62953683
458.52196867	2.96955469
458.88049416	16.70069754
459.23897418	10.92737612
459.5974087	-1.00935603
459.95579773	9.83512612
460.31414124	-1.08737388
460.67243922	19.97744754
461.03069167	21.84987612
461.38889857	-2.49169531
461.74705991	2.81351897
462.10517568	-9.12321317
462.46324587	16.70069754
462.82127047	21.53780469
463.17924946	16.31060826
463.53718283	-7.40682031
463.89507058	7.88467969
464.25291269	17.55889397
464.61070915	16.70069754
464.96845994	4.60792969
465.32616507	-1.63349888
465.68382451	18.10501897
466.04143825	11.00539397
466.39900629	14.20412612
466.75652861	28.2473404
467.11400519	13.65800112
467.47143604	17.40285826
467.82882114	19.66537612
468.18616047	26.0628404
468.54345402	35.3469654
468.90070179	22.7860904
469.25790376	10.61530469
469.61505992	12.33169754
469.97217026	16.93475112
470.32923477	22.94212612
470.68625343	52.90098326
471.04322624	30.89994754
471.40015318	23.95635826
471.75703425	40.34010826
472.11386942	23.25419754
472.4706587	39.09182254
472.82740206	49.15612612
473.1840995	25.59473326
473.540751	55.08548326
473.89735656	48.84405469
474.25391616	39.7159654
474.61042979	62.26312612
474.96689745	51.02855469
475.32331911	67.95842969
475.67969476	58.36223326
476.0360244	52.97900112
476.39230802	59.29844754
476.7485456	78.17876897
477.10473713	61.79501897
477.4608826	77.32057254
477.816982	92.30000112
478.17303532	101.4280904
478.52904254	103.45655469
478.88500366	101.35007254
479.24091866	121.01057254
479.59678753	118.20192969
479.95261026	134.50766183
480.30838684	142.46548326
480.66411726	145.6642154
481.0198015	165.55876897
481.37543956	161.11175112
481.73103143	181.63044754
482.08657708	178.89982254
482.44207652	196.14176897
482.79752972	204.41166183
483.15293668	217.67469754
483.50829739	245.76112612
483.86361184	252.23660826
484.21888	261.4427154
484.57410188	308.33144754
484.92927747	323.54492969
485.28440674	313.09053683
485.63948969	351.0072154
485.9945263	366.37673326
486.34951657	391.26442969
486.70446049	415.68401897
487.05935804	456.48735826
487.4142092	464.75725112
487.76901398	512.34814397
488.12377236	511.72400112
488.47848433	553.6195904
488.83314987	580.76980469
489.18776897	606.43767969
489.54234163	660.73810826
489.89686783	692.41335826
490.25134756	748.74225112
490.6057808	777.68687612
490.96016756	813.96517969
491.31450781	848.05898326
491.66880155	889.4864654
492.02304876	983.73203683
492.37724943	1011.11630469
492.73140355	1085.23326897
493.08551111	1114.88005469
493.4395721	1186.73450112
493.79358651	1233.85728683
494.14755432	1319.13080469
494.50147552	1365.86350112
494.85535011	1486.47910826
495.20917806	1540.70151897
495.56295938	1622.3862154
495.91669404	1697.67344754
496.27038205	1777.01760826
496.62402337	1882.49775112
496.97761801	1969.64369754
497.33116595	2062.25089397
497.68466719	2157.5887154
498.0381217	2266.2675904
498.39152948	2379.15942969
498.74489052	2513.74023326
499.09820481	2591.52403683
499.45147233	2738.97778683
499.80469307	2862.32401897
500.15786702	3005.87687612
500.51099417	3133.74814397
500.86407452	3275.11650112
501.21710803	3447.84803683
501.57009472	3566.43517969
501.92303456	3758.12505469
502.27592754	3917.7495904
502.62877366	4096.41048326
502.98157289	4274.75930469
503.33432524	4440.9373404
503.68703068	4641.3652154
504.0396892	4830.94860826
504.39230081	5000.1693404
504.74486547	5216.74691183
505.09738319	5428.64341183
505.44985395	5645.06494754
505.80227774	5865.85548326
506.15465454	6090.2348404
506.50698436	6327.17507254
506.85926716	6582.13742969
507.21150296	6734.35026897
507.56369172	6998.05062612
507.91583344	7212.20964397
508.26792812	7407.17626897
508.61997573	7693.26775112
508.97197627	7884.72357254
509.32392973	8027.26219754
509.67583609	8270.9119654
510.02769534	8434.59342969
510.37950747	8604.36028683
510.73127247	8802.91573326
511.08299034	8951.30569754
511.43466104	9031.74210826
511.78628459	9158.44310826
512.13786096	9270.39873326
512.48939014	9303.0882154
512.84087212	9351.92739397
513.1923069	9357.93476897
513.54369445	9372.29005469
513.89503477	9319.54998326
514.24632785	9248.94382254
514.59757367	9196.82789397
514.94877222	9042.5865904
515.2999235	8905.04110826
515.65102749	8809.31319754
516.00208417	8589.61491183
516.35309355	8463.46003683
516.7040556	8243.0595904
517.05497031	8058.15726897
517.40583768	7776.6688404
517.75665769	7587.86562612
518.10743033	7353.73403683
518.4581556	7137.93664397
518.80883346	6875.79664397
519.15946393	6631.52273326
519.51004698	6371.02110826
519.86058261	6118.6333404
520.2110708	5928.26976897
520.56151154	5666.12976897
520.91190482	5467.6523404
521.26225062	5290.00567969
521.61254895	5032.54675112
521.96279978	4801.61389397
522.3130031	4623.73317969
522.66315891	4418.93630469
523.01326719	4239.02712612
523.36332793	4050.61400112
523.71334112	3909.47969754
524.06330674	3726.13773326
524.41322479	3616.2885904
524.76309526	3428.88969754
525.11291813	3278.39325112
525.46269339	3160.50826897
525.81242103	3001.8979654
526.16210104	2855.84853683
526.51173341	2775.49014397
526.86131813	2626.32000112
527.21085517	2530.90416183
527.56034455	2410.9907154
527.90978623	2330.7103404
528.25918022	2192.38467969
528.60852649	2132.70101897
528.95782505	2019.65314397
529.30707587	1937.11025112
529.65627894	1846.60953683
530.00543426	1761.6480904
530.35454181	1689.63760826
530.70360158	1605.84642969
531.05261356	1535.24026897
531.40157774	1507.46591183
531.75049411	1408.69530469
532.09936265	1371.63682254
532.44818336	1288.23573326
532.79695622	1236.97800112
533.14568122	1213.80669754
533.49435835	1134.1504654
533.8429876	1108.01448326
534.19156896	1035.22382254
534.54010241	1014.08098326
534.88858795	963.44739397
535.23702556	907.82066183
535.58541523	870.13803683
535.93375695	854.5344654
536.28205071	820.51867969
536.6302965	771.05535826
536.97849431	752.72116183
537.32664412	706.76864397
537.67474592	702.08757254
538.0227997	640.68751897
538.37080546	624.14773326
538.71876317	609.01226897
539.06667284	563.83992969
539.41453443	548.54842969
539.76234796	525.92325112
540.1101134	513.83048326
540.45783074	488.31864397
540.80549997	464.91328683
541.15312108	443.38035826
541.50069406	427.77678683
541.84821889	417.47842969
542.19569557	386.11525112
542.54312409	368.4832154
542.89050443	354.59603683
543.23783658	360.68142969
543.58512052	321.28241183
543.93235626	321.36042969
544.27954378	321.75051897
544.62668306	287.6567154
544.97377409	283.8338404
545.32081687	262.30091183
545.66781138	263.70523326
546.01475761	265.03153683
546.36165554	235.07267969
546.70850518	220.56135826
547.0553065	226.33467969
547.4020595	206.51814397
547.74876416	189.51025112
548.09542047	203.78751897
548.44202842	184.4390904
548.788588	175.1549654
549.1350992	167.58723326
549.481562	171.17605469
549.8279764	166.65101897
550.17434238	149.4870904
550.52065994	159.3173404
550.86692906	138.25251897
551.21314972	140.82710826
551.55932193	126.23776897
551.90544566	139.42278683
552.2515209	106.96735826
552.59754765	117.10967969
552.94352589	109.22987612
553.28945562	115.54932254
553.63533681	110.55617969
553.98116946	96.98107254
554.32695356	97.6052154
554.67268909	101.89619754
555.01837605	88.00901897
555.36401442	85.51244754
555.70960419	108.21564397
556.05514536	74.51192969
556.4006379	64.60366183
556.7460818	73.0295904
557.09147707	59.14241183
557.43682368	74.35589397
557.78212162	55.70962612
558.12737088	62.26312612
558.47257146	56.17773326
558.81772333	59.06439397
559.16282649	46.19144754
559.50788093	70.45500112
559.85288663	45.87937612
560.19784358	30.66589397
560.54275178	39.7159654
560.88761121	40.57416183
561.23242185	32.46030469
561.57718371	34.41075112
561.92189676	50.71648326
562.266561	45.02117969
562.61117641	31.91417969
562.95574298	42.36857254
563.3002607	23.64428683
563.64472957	42.83667969
563.98914956	36.20516183
564.33352067	15.21835826
564.67784288	30.50985826
565.02211619	27.07707254
565.36634058	30.58787612
565.71051604	37.60948326
566.05464256	30.82192969
566.39872013	24.26842969
566.74274874	37.45344754
567.08672837	22.70807254
567.43065902	18.80717969
567.77454067	28.16932254
568.11837331	6.87044754
568.46215694	17.63691183
568.80589153	3.04757254
569.14957708	17.16880469
569.49321357	6.87044754
569.836801	-2.25764174
570.18033935	19.66537612
570.52382862	16.7787154
570.86726878	8.89891183
571.21065984	29.49562612
571.55400177	27.85725112
571.89729457	-10.76158817
572.24053822	19.19726897
572.58373272	9.91314397
572.92687805	15.06232254
573.2699742	8.19675112
573.61302116	4.84198326
573.95601892	15.21835826
574.29896746	6.09026897
574.64186678	14.36016183
574.98471687	-12.32194531
575.3275177	1.79928683
575.67026928	2.89153683
576.01297159	2.5794654
576.35562462	7.02648326
576.69822835	14.98430469
577.04078278	13.89205469
577.38328789	12.79980469
577.72574368	15.1403404
578.06815012	8.97692969
578.41050722	5.54414397
578.75281496	17.63691183
579.09507332	3.28162612
579.4372823	-5.30033817
579.77944188	24.19041183
580.12155206	-1.08737388
580.46361282	13.97007254
580.80562415	10.06917969
581.14758604	6.63639397
581.48949847	2.81351897
581.83136144	15.37439397
582.17317494	8.11873326
582.51493895	10.69332254
582.85665347	14.5942154
583.19831847	15.84250112
583.53993395	5.07603683
583.8814999	-1.47746317
584.22301631	-11.46374888
584.56448316	15.6864654
584.90590045	-2.80376674
585.24726816	8.43080469
585.58858628	15.21835826
585.9298548	-6.47060603
586.2710737	10.45926897
586.61224299	-3.03782031
586.95336264	0.86307254
587.29443264	10.92737612
587.63545299	5.93423326
587.97642367	25.98482254
588.31734467	18.9632154
588.65821598	-13.18014174
588.99903758	-11.15167746
589.33980947	20.13348326
589.68053163	11.78557254
590.02120406	1.33117969
590.36182674	11.23944754
590.70239966	-0.22917746
591.04292281	6.55837612
591.38339617	-2.80376674
591.72381975	11.23944754
592.06419351	2.50144754
592.40451746	1.4872154
592.74479159	18.65114397
593.08501587	15.29637612
593.4251903	25.36067969
593.76531487	1.25316183
594.10538957	8.5868404
594.44541438	-0.1511596
594.78538929	14.36016183
595.1253143	12.72178683
595.46518939	-4.05205246
595.80501455	8.50882254
596.14478976	-5.69042746
596.48451503	0.62901897
596.82419032	30.50985826
597.16381565	1.09712612
597.50339098	10.61530469
597.84291632	21.6938404
598.18239164	6.4023404
598.52181695	9.75710826
598.86119222	7.4945904
599.20051744	-0.22917746
599.53979262	1.87730469
599.87901772	-5.37835603
600.21819275	-18.1732846
600.55731768	7.02648326
600.89639252	-6.54862388
601.23541724	16.15457254
601.57439184	12.33169754
601.9133163	11.78557254
602.25219062	-0.1511596
602.59101477	-5.69042746
602.92978876	-4.20808817
603.26851257	-4.75421317
603.60718619	7.96269754
603.9458096	4.68594754
604.28438279	1.40919754
604.62290576	5.07603683
604.9613785	11.08341183
605.29980098	-15.9887846
605.6381732	-7.95294531
605.97649515	3.6717154
606.31476682	4.06180469
606.65298819	-5.37835603
606.99115926	-7.71889174
607.32928001	1.95532254
607.66735042	2.81351897
608.0053705	8.74287612
608.34334023	1.95532254
608.6812596	-0.30719531
609.01912859	-2.17962388
609.35694719	12.09764397
609.6947154	-0.38521317
610.0324332	0.86307254
610.37010058	14.28214397
610.70771752	-9.27924888
611.04528403	2.42342969
611.38280008	4.99801897
611.72026566	-6.47060603
612.05768077	-10.68357031
612.39504539	-3.11583817
612.73235951	15.6864654
613.06962312	13.34592969
613.40683621	9.1329654
613.74399876	-11.46374888
614.08111077	10.53728683
614.41817222	-9.51330246
614.7551831	-5.0662846
615.09214341	-8.65510603
615.42905312	-0.22917746
615.76591223	6.71441183
616.10272073	11.70755469
616.4394786	-6.54862388
616.77618584	-12.94608817
617.11284243	2.73550112
617.44944836	-7.87492746
617.78600362	11.8635904
618.12250819	11.39548326
618.45896208	2.81351897
618.79536526	7.57260826
619.13171772	16.2325904
619.46801946	5.15405469
619.80427046	6.09026897
620.1404707	2.18937612
620.47662019	14.98430469
620.8127189	-4.91024888
621.14876683	0.47298326
621.48476397	3.43766183
621.82071029	-10.68357031
622.1566058	3.90576897
622.49245048	4.52991183
622.82824432	3.04757254
623.1639873	-17.86121317
623.49967942	-5.84646317
623.83532067	11.16142969
624.17091102	9.21098326
624.50645049	1.4872154
624.84193904	9.91314397
625.17737667	3.74973326
625.51276336	20.67960826
625.84809912	10.38125112
626.18338392	-7.56285603
626.51861775	-1.55548103
626.85380061	21.22573326
627.18893247	22.55203683
627.52401334	-0.61926674
627.85904319	-16.22283817
628.19402202	-1.94557031
628.52894982	-2.95980246
628.86382657	8.5868404
629.19865226	7.33855469
629.53342688	0.9410904
629.86815043	19.19726897
630.20282288	-1.86755246
630.53744422	-3.19385603
630.87201446	-1.16539174
631.20653357	2.96955469
631.54100154	9.28900112
631.87541836	-13.57023103
632.20978402	17.3248404
632.54409851	17.16880469
632.87836182	-8.10898103
633.21257394	1.56523326
633.54673485	3.6717154
633.88084454	5.23207254
634.214903	5.07603683
634.54891023	-2.80376674
634.8828662	8.27476897
635.21677091	-6.86069531
635.55062435	12.33169754
635.8844265	-6.08051674
636.21817736	1.25316183
636.55187691	12.56575112
636.88552513	-5.30033817
637.21912203	2.18937612
637.55266759	21.22573326
637.88616179	2.11135826
638.21960463	2.42342969
638.55299609	-0.30719531
638.88633616	6.55837612
639.21962484	26.92103683
639.5528621	20.44555469
639.88604795	-5.37835603
640.21918236	8.74287612
640.55226532	-0.77530246
640.88529683	-1.47746317
641.21827687	1.17514397
641.55120544	-1.32142746
641.88408251	1.17514397
642.21690808	0.23892969
642.54968214	15.06232254
642.88240467	-2.64773103
643.21507567	22.16194754
643.54769513	-14.97455246
643.88026302	8.35278683
644.21277934	-6.7046596
644.54524409	22.63005469
644.87765724	1.79928683
645.21001878	3.51567969
645.54232872	-0.22917746
645.87458702	-3.73998103
646.20679369	6.32432254
646.53894871	-8.8891596
646.87105206	7.4945904
647.20310375	-6.31457031
647.53510375	0.86307254
647.86705205	1.25316183
648.19894865	-4.67619531
648.53079353	-2.25764174
648.86258669	15.99853683
649.1943281	10.7713404
649.52601776	6.87044754
649.85765566	10.45926897
650.18924178	0.70703683
650.52077612	-19.57760603
650.85225866	-6.1585346
651.18368939	4.92000112
651.5150683	12.79980469
651.84639537	-3.58394531
652.17767061	-1.2434096
652.50889399	22.70807254
652.84006551	30.82192969
653.17118515	-5.37835603
653.5022529	17.63691183
653.83326875	-2.72574888
654.16423269	8.89891183
654.4951447	4.2178404
654.82600478	15.21835826
655.15681292	0.31694754
655.4875691	13.97007254
655.81827331	7.80666183
656.14892555	-6.78267746
656.47952579	28.40337612
656.81007403	2.11135826
657.14057025	1.01910826
657.47101445	27.07707254
657.80140662	24.89257254
658.13174673	2.11135826
658.46203479	0.47298326
658.79227078	-1.16539174
659.12245468	3.20360826
659.45258649	4.60792969
659.7826662	1.79928683
660.11269379	-1.16539174
660.44266925	-3.66196317
660.77259257	2.26739397
661.10246375	6.71441183
661.43228276	2.73550112
661.7620496	0.47298326
662.09176425	2.65748326
662.42142671	-2.3356596
662.75103696	3.98378683
663.08059499	2.11135826
663.4101008	-2.41367746
663.73955436	5.07603683
664.06895566	-5.69042746
664.39830471	9.6790904
664.72760148	17.8709654
665.05684596	3.90576897
665.38603814	-4.83223103
665.71517802	2.73550112
666.04426557	-5.30033817
666.37330079	-4.83223103
666.70228367	10.2252154
667.03121419	-14.03833817
667.36009234	2.65748326
667.68891812	24.34644754
668.01769151	11.23944754
668.34641249	5.70017969
668.67508107	-8.26501674
669.00369722	-3.66196317
669.33226093	17.63691183
669.6607722	-2.72574888
669.98923102	-3.34989174
670.31763736	-5.37835603
670.64599122	16.62267969
670.97429259	6.55837612
671.30254146	2.0333404
671.63073781	0.23892969
671.95888164	14.67223326
672.28697293	6.32432254
672.61501167	-2.64773103
672.94299785	-23.40048103
673.27093146	9.52305469
673.59881249	-1.71151674
673.92664092	6.09026897
674.25441675	7.33855469
674.58213996	6.24630469
674.90981054	4.7639654
675.23742848	6.71441183
675.56499377	7.26053683
675.8925064	16.2325904
676.21996635	-1.7895346
676.54737362	4.7639654
676.87472819	0.55100112
677.20203006	3.1255904
677.5292792	33.00642969
677.85647561	11.8635904
678.18361928	-0.38521317
678.5107102	-8.03096317
678.83774835	7.96269754
679.16473373	12.79980469
679.49166632	1.17514397
679.81854611	-2.25764174
680.14537308	14.51619754
680.47214724	5.07603683
680.79886856	-7.7969096
681.12553704	11.39548326
681.45215267	-17.78319531
681.77871542	-4.36412388
682.1052253	11.62953683
682.43168228	9.21098326
682.75808637	-4.13007031
683.08443754	4.29585826
683.41073578	7.88467969
683.73698109	6.24630469
684.06317346	-5.53439174
684.38931286	10.84935826
684.7153993	17.79294754
685.04143275	-4.91024888
685.36741321	7.10450112
685.69334067	-13.88230246
686.01921511	7.80666183
686.34503653	5.70017969
686.6708049	12.17566183
686.99652023	11.00539397
687.3221825	16.07655469
687.64779169	-6.7046596
687.9733478	3.35964397
688.29885082	3.74973326
688.62430072	-7.40682031
688.94969751	14.67223326
689.27504118	-5.53439174
689.6003317	-8.26501674
689.92556906	20.21150112
690.25075327	11.23944754
690.5758843	4.13982254
690.90096214	-4.13007031
691.22598679	-0.46323103
691.55095823	19.19726897
691.87587644	6.4023404
692.20074143	-1.08737388
692.52555317	5.77819754
692.85031166	12.33169754
693.17501688	1.01910826
693.49966882	-7.7969096
693.82426748	-20.27976674
694.14881283	4.60792969
694.47330488	-5.53439174
694.7977436	-0.46323103
695.12212899	5.62216183
695.44646103	-7.17276674
695.77073971	4.92000112
696.09496503	-11.46374888
696.41913696	-6.47060603
696.74325551	9.28900112
697.06732065	5.23207254
697.39133238	-11.46374888
697.71529068	-3.34989174
698.03919555	-3.89601674
698.36304697	11.23944754
698.68684493	2.26739397
699.01058942	1.64325112
699.33428042	-6.86069531
699.65791794	0.78505469
699.98150194	-5.30033817
700.30503243	9.44503683
700.6285094	9.36701897
700.95193282	3.1255904
701.2753027	-3.4279096
701.59861901	0.23892969
701.92188175	9.36701897
702.2450909	3.98378683
702.56824646	-13.64824888
702.89134841	-0.6972846
703.21439674	-10.05942746
703.53739144	9.44503683
703.8603325	-8.73312388
704.18321991	-13.41419531
704.50605366	1.72126897
704.82883372	-4.20808817
705.1515601	13.03385826
705.47423278	24.58050112
705.79685176	-16.84698103
706.11941701	-0.22917746
706.44192852	0.62901897
706.7643863	-6.93871317
707.08679032	6.79242969
707.40914057	-1.16539174
707.73143704	-3.27187388
708.05367973	-15.59869531
708.37586861	11.00539397
708.69800368	-11.6197846
709.02008493	7.4945904
709.34211234	-8.3430346
709.6640859	21.53780469
709.98600561	-13.18014174
710.30787145	-5.76844531
710.62968341	-9.35726674
710.95144147	-4.75421317
711.27314563	3.51567969
711.59479588	8.97692969
711.9163922	-1.39944531
712.23793459	4.7639654
712.55942302	-1.47746317
712.8808575	8.5868404
713.202238	-7.01673103
713.52356452	12.09764397
713.84483704	9.75710826
714.16605556	-7.7969096
714.48722006	2.11135826
714.80833054	-4.75421317
715.12938697	-8.96717746
715.45038935	15.92051897
715.77133767	0.23892969
716.09223192	1.25316183
716.41307208	4.2178404
716.73385814	14.75025112
717.0545901	8.0407154
717.37526793	0.23892969
717.69589163	-4.98826674
718.01646119	-21.05994531
718.3369766	-4.44214174
718.65743784	6.32432254
718.97784491	12.25367969
719.29819779	21.38176897
719.61849647	10.7713404
719.93874093	0.78505469
720.25893118	-6.93871317
720.57906719	4.06180469
720.89914896	-15.83274888
721.21917647	-0.93133817
721.53914971	-2.49169531
721.85906867	14.67223326
722.17893335	6.9484654
722.49874372	1.4872154
722.81849978	5.3100904
723.13820151	-7.2507846
723.45784891	-0.77530246
723.77744196	6.87044754
724.09698065	18.33907254
724.41646497	1.17514397
724.73589491	-10.05942746
725.05527046	-4.44214174
725.3745916	-11.54176674
725.69385833	18.9632154
726.01307063	12.09764397
726.33222849	2.5794654
726.6513319	4.13982254
726.97038085	18.9632154
727.28937533	-4.44214174
727.60831533	-11.22969531
727.92720082	-5.37835603
728.24603182	-21.91814174
728.56480829	12.48773326
728.88353023	13.34592969
729.20219764	1.64325112
729.52081049	-16.61292746
729.83936878	-5.92448103
730.15787249	-21.37201674
730.47632162	0.23892969
730.79471614	3.90576897
731.11305606	-8.73312388
731.43134136	1.33117969
731.74957203	-4.44214174
732.06774805	10.14719754
732.38586942	-7.40682031
732.70393612	8.5868404
733.02194815	-4.98826674
733.33990548	-0.85332031
733.65780812	3.59369754
733.97565604	17.01276897
734.29344924	2.18937612
734.61118771	-9.90339174
734.92887143	10.30323326
735.2465004	-12.32194531
735.56407459	0.62901897
735.88159401	-6.7046596
736.19905863	3.74973326
736.51646845	11.3174654
736.83382346	3.98378683
737.15112364	1.17514397
737.46836898	-5.14430246
737.78555948	-3.89601674
738.10269512	-16.37887388
738.41977588	-15.75473103
738.73680177	-7.40682031
739.05377276	-17.15905246
739.37068884	-2.80376674
739.68755001	-14.74049888
740.00435625	-8.57708817
740.32110755	14.0480904
740.6378039	4.37387612
740.95444529	6.87044754
741.2710317	-4.59817746
741.58756313	-8.3430346
741.90403956	-1.86755246
742.22046099	-1.39944531
742.5368274	10.06917969
742.85313877	-9.9814096
743.16939511	-2.02358817
743.48559639	-2.41367746
743.80174261	1.17514397
744.11783375	-4.91024888
744.4338698	-13.64824888
744.74985075	0.55100112
745.0657766	-4.75421317
745.38164732	-8.8891596
745.69746291	-15.05257031
746.01322336	-11.54176674
746.32892865	0.62901897
746.64457877	-21.37201674
746.96017372	2.0333404
747.27571348	-3.11583817
747.59119803	5.07603683
747.90662737	-0.30719531
748.22200149	5.23207254
748.53732037	-4.59817746
748.85258401	-1.55548103
749.16779239	4.45189397
749.48294549	-2.64773103
749.79804332	-7.01673103
750.11308586	11.70755469
750.42807309	-12.1659096
750.74300501	20.52357254
751.0578816	2.42342969
751.37270285	16.2325904
751.68746875	-4.98826674
752.0021793	6.71441183
752.31683447	-5.69042746
752.63143426	1.09712612
752.94597865	-10.37149888
753.26046764	-12.47798103
753.57490121	-2.56971317
753.88927935	-8.26501674
754.20360205	3.1255904
754.5178693	-4.59817746
754.83208108	-3.73998103
755.14623739	-7.2507846
755.46033822	0.00487612
755.77438355	16.85673326
756.08837337	-1.71151674
756.40230767	-0.6972846
756.71618644	10.7713404
757.03000967	1.01910826
757.34377734	8.11873326
757.65748945	-5.22232031
757.97114598	-6.78267746
758.28474692	8.89891183
758.59829226	-6.47060603
758.91178199	-16.45689174
759.2252161	1.17514397
759.53859458	-8.73312388
759.85191741	0.08289397
760.16518458	-9.4352846
760.47839609	8.19675112
760.79155191	1.01910826
761.10465205	0.16091183
761.41769649	-3.4279096
761.73068521	8.5868404
762.0436182	-1.00935603
762.35649546	-8.49907031
762.66931697	7.80666183
762.98208273	-3.9740346
763.29479271	11.3174654
763.60744691	6.09026897
763.92004532	10.69332254
764.23258792	-22.23021317
764.54507471	-3.81799888
764.85750567	-10.91762388
765.16988079	8.43080469
765.48220006	1.56523326
765.79446347	-8.26501674
766.10667101	-17.70517746
766.41882267	-0.38521317
766.73091842	6.4023404
767.04295827	-6.7046596
767.35494221	-15.9887846
767.66687021	5.62216183
767.97874227	-1.47746317
768.29055838	-0.07314174
768.60231853	-11.77582031
768.9140227	-19.2655346
769.22567088	-2.56971317
769.53726307	7.4945904
769.84879924	-4.83223103
770.1602794	5.62216183
770.47170352	-24.80480246
770.7830716	-14.3504096
771.09438363	1.72126897
771.40563958	-18.01724888
771.71683947	-5.53439174
772.02798326	-5.0662846
772.33907095	19.27528683
772.65010253	-7.48483817
772.96107798	-10.37149888
773.27199731	2.89153683
773.58286048	-2.17962388
773.8936675	0.55100112
774.20441835	6.09026897
774.51511302	2.50144754
774.8257515	5.70017969
775.13633377	9.83512612
775.44685983	-15.52067746
775.75732967	3.59369754
776.06774326	-6.23655246
776.37810061	-5.22232031
776.6884017	6.01225112
776.99864652	-6.31457031
777.30883506	-4.83223103
777.6189673	2.96955469
777.92904324	6.71441183
778.23906286	-1.63349888
778.54902615	-17.54914174
778.8589331	10.2252154
779.1687837	-2.02358817
779.47857794	8.35278683
779.7883158	1.09712612
780.09799728	2.50144754
780.40762237	2.18937612
780.71719104	1.72126897
781.0267033	-3.19385603
781.33615913	4.99801897
781.64555851	-5.14430246
781.95490144	-2.64773103
782.26418791	-5.0662846
782.5734179	-15.67671317
782.8825914	4.99801897
783.1917084	7.02648326
783.50076889	-4.59817746
783.80977287	-5.53439174
784.1187203	-6.93871317
784.4276112	-6.31457031
784.73644554	-10.83960603
785.04522331	15.06232254
785.3539445	-8.18699888
785.6626091	10.2252154
785.9712171	-3.34989174
786.27976849	-21.37201674
786.58826326	4.45189397
786.89670138	-14.97455246
787.20508287	-2.8817846
787.51340769	8.74287612
787.82167584	0.70703683
788.12988732	-2.49169531
788.4380421	15.92051897
788.74614017	-1.94557031
789.05418154	8.0407154
789.36216617	8.97692969
789.67009407	7.96269754
789.97796522	3.04757254
790.2857796	2.81351897
790.59353722	-8.65510603
790.90123805	12.56575112
791.20888208	5.62216183
791.51646931	15.45241183
791.82399973	0.00487612
792.13147331	-8.73312388
792.43889005	-2.64773103
792.74624995	-5.92448103
793.05355297	5.07603683
793.36079913	-1.86755246
793.66798839	-10.68357031
793.97512077	-0.38521317
794.28219623	5.70017969
794.58921477	-14.42842746
794.89617638	2.73550112
795.20308105	-2.80376674
795.50992876	-2.80376674
795.81671951	-3.34989174
796.12345328	12.25367969
796.43013006	2.73550112
796.73674984	-7.48483817
797.04331261	-13.49221317
797.34981836	-3.03782031
797.65626707	-2.64773103
797.96265874	2.81351897
798.26899336	-3.34989174
798.5752709	-2.8817846
798.88149137	8.43080469
799.18765474	-0.93133817
799.49376101	6.87044754
799.79981017	-1.16539174
800.1058022	-4.36412388
800.4117371	8.66485826
800.71761485	4.06180469
801.02343544	-12.55599888
801.32919886	-5.76844531
801.6349051	-3.73998103
801.94055414	3.98378683
802.24614598	-1.63349888
802.5516806	4.52991183
802.857158	-10.99564174
803.16257816	3.6717154
803.46794106	-7.2507846
803.77324671	-11.54176674
804.07849508	8.89891183
804.38368617	-8.8891596
804.68881996	-11.77582031
804.99389645	-12.1659096
805.29891561	11.94160826
805.60387745	-0.93133817
805.90878194	5.70017969
806.21362909	-8.96717746
806.51841887	-5.84646317
806.82315127	-8.42105246
807.12782629	-6.93871317
807.4324439	8.0407154
807.73700411	4.60792969
808.0415069	-2.41367746
808.34595226	-17.93923103
808.65034017	3.1255904
808.95467062	17.24682254
809.25894361	6.71441183
809.56315912	14.20412612
809.86731715	4.99801897
810.17141767	0.86307254
810.47546068	-3.9740346
810.77944617	3.51567969
811.08337412	-19.88967746
811.38724452	-15.9887846
811.69105737	0.31694754
811.99481265	3.98378683
812.29851035	-10.37149888
812.60215046	27.38914397
812.90573296	13.11187612
813.20925785	-2.10160603
813.51272511	-7.56285603
813.81613474	7.80666183
814.11948672	-5.76844531
814.42278103	8.97692969
814.72601768	-3.11583817
815.02919664	-2.72574888
815.33231791	4.45189397
815.63538147	12.48773326
815.93838732	-2.95980246
816.24133544	-14.3504096
816.54422582	3.04757254
816.84705844	-7.40682031
817.14983331	5.8562154
817.4525504	10.69332254
817.75520971	-6.08051674
818.05781122	-9.82537388
818.36035492	-6.47060603
818.6628408	-3.73998103
818.96526885	22.7860904
819.26763906	-4.75421317
819.56995141	1.01910826
819.8722059	-17.6271596
820.17440252	-4.67619531
820.47654124	-17.31508817
820.77862207	-20.66985603
821.08064499	-7.7969096
821.38260998	0.31694754
821.68451704	8.82089397
821.98636616	1.40919754
822.28815732	8.5868404
822.58989051	7.10450112
822.89156573	3.20360826
823.19318295	-2.56971317
823.49474218	15.21835826
823.79624339	0.55100112
824.09768657	3.74973326
824.39907172	7.88467969
824.70039882	11.00539397
825.00166787	-11.69780246
825.30287884	-3.89601674
825.60403174	-1.86755246
825.90512654	-17.31508817
826.20616323	-9.27924888
826.50714181	1.72126897
826.80806227	-1.00935603
827.10892459	-5.37835603
827.40972875	18.18303683
827.71047476	1.09712612
828.01116259	-8.10898103
828.31179224	-0.30719531
828.6123637	0.62901897
828.91287694	-5.30033817
829.21333198	-1.39944531
829.51372878	-2.25764174
829.81406734	-3.03782031
830.11434765	-1.86755246
830.41456969	12.17566183
830.71473346	-17.23707031
831.01483895	-15.4426596
831.31488613	17.01276897
831.61487501	-12.00987388
831.91480557	-7.71889174
832.2146778	-7.09474888
832.51449168	8.89891183
832.81424721	-8.18699888
833.11394437	-10.29348103
833.41358315	7.88467969
833.71316355	-2.02358817
834.01268555	-19.2655346
834.31214913	10.38125112
834.6115543	-1.47746317
834.91090103	-8.3430346
835.21018931	0.47298326
835.50941913	-8.57708817
835.80859049	-2.80376674
836.10770337	-10.5275346
836.40675776	-15.20860603
836.70575364	-7.64087388
837.00469101	0.55100112
837.30356986	-16.06680246
837.60239017	8.74287612
837.90115193	8.89891183
838.19985513	1.17514397
838.49849976	-7.87492746
838.79708581	0.86307254
839.09561327	-9.20123103
839.39408212	-0.1511596
839.69249235	-8.81114174
839.99084396	4.45189397
840.28913693	-1.32142746
840.58737124	-4.91024888
840.8855469	-22.62030246
841.18366388	9.1329654
841.48172218	-1.2434096
841.77972178	9.28900112
842.07766268	0.23892969
842.37554485	-5.37835603
842.6733683	6.63639397
842.971133	-2.56971317
843.26883895	8.27476897
843.56648614	-13.41419531
843.86407455	11.47350112
844.16160418	-7.95294531
844.459075	3.20360826
844.75648702	-15.20860603
845.05384021	-25.50696317
845.35113457	11.62953683
845.64837009	11.78557254
845.94554676	3.98378683
846.24266455	-8.8891596
846.53972347	-1.00935603
846.8367235	-2.25764174
847.13366463	5.46612612
847.43054684	-10.99564174
847.72737013	4.84198326
848.02413449	10.38125112
848.3208399	-1.94557031
848.61748635	3.59369754
848.91407384	-30.65614174
849.21060234	3.28162612
849.50707185	-10.76158817
849.80348236	7.88467969
850.09983385	-6.78267746
850.39612632	19.04123326
850.69235975	-8.8891596
850.98853413	-6.78267746
851.28464945	-9.04519531
851.5807057	-15.52067746
851.87670287	-5.92448103
852.17264094	-7.17276674
852.4685199	-4.05205246
852.76433975	-27.53542746
853.06010047	2.96955469
853.35580205	7.18251897
853.65144448	2.65748326
853.94702775	-0.77530246
854.24255184	-11.6197846
854.53801674	-15.20860603
854.83342245	4.52991183
855.12876896	-12.47798103
855.42405624	-0.46323103
855.71928429	-33.30874888
856.0144531	11.39548326
856.30956265	-11.54176674
856.60461294	7.10450112
856.89960395	-4.20808817
857.19453568	15.53042969
857.48940811	-14.03833817
857.78422122	-16.84698103
858.07897501	2.26739397
858.37366947	7.10450112
858.66830459	-5.45637388
858.96288035	-1.16539174
859.25739674	-0.6972846
859.55185375	-4.05205246
859.84625137	-1.08737388
860.14058959	2.89153683
860.4348684	-13.2581596
860.72908778	-5.37835603
861.02324773	6.32432254
861.31734823	3.43766183
861.61138927	5.8562154
861.90537084	-11.46374888
862.19929292	5.8562154
862.49315552	-9.04519531
862.78695861	-5.30033817
863.08070219	-5.6124096
863.37438624	10.14719754
863.66801075	-1.47746317
863.96157571	-18.1732846
864.25508111	-10.44951674
864.54852694	-7.64087388
864.84191318	-12.86807031
865.13523983	-11.85383817
865.42850687	-2.95980246
865.7217143	-14.97455246
866.01486209	-2.95980246
866.30795024	-8.81114174
866.60097874	6.09026897
866.89394758	1.72126897
867.18685674	-5.53439174
867.47970622	-5.14430246
867.772496	-5.6124096
868.06522607	-7.64087388
868.35789642	-2.95980246
868.65050704	9.1329654
868.94305791	1.01910826
869.23554903	7.88467969
869.52798038	-2.41367746
869.82035196	0.47298326
870.11266375	-3.19385603
870.40491573	3.04757254
870.69710791	-4.20808817
870.98924026	-3.66196317
871.28131278	-8.57708817
871.57332545	8.43080469
871.86527826	-35.41523103
872.15717121	-7.09474888
872.44900428	-10.13744531
872.74077745	4.13982254
873.03249073	8.43080469
873.32414409	-9.51330246
873.61573752	-7.17276674
873.90727102	-7.01673103
874.19874456	5.15405469
874.49015815	-6.1585346
874.78151177	-4.05205246
875.07280541	2.26739397
875.36403905	-7.87492746
875.65521269	-3.03782031
875.94632631	1.09712612
876.2373799	-20.04571317
876.52837345	-5.30033817
876.81930696	-1.2434096
877.1101804	7.33855469
877.40099376	-17.6271596
877.69174705	-0.85332031
877.98244023	-1.86755246
878.27307331	-14.42842746
878.56364627	4.60792969
878.8541591	7.96269754
879.14461179	-5.69042746
879.43500432	-1.32142746
879.72533669	-7.64087388
880.01560889	6.48035826
880.3058209	-4.20808817
880.5959727	-7.32880246
880.8860643	-6.1585346
881.17609568	-6.1585346
881.46606683	-6.1585346
